 0
 0
 4.285714e-01
 1.142857e+00
 1.857143e+00
 2.428571e+00
 2.857143e+00
 3.428571e+00
 4.285714e+00
 5.000000e+00
 5.142857e+00
 4.571429e+00
 4.000000e+00
 3.857143e+00
 4.142857e+00
 4.285714e+00
 3.857143e+00
 3.285714e+00
 3.428571e+00
 4
 4.714286e+00
 5.571429e+00
 6.571429e+00
 8.428571e+00
 1.085714e+01
 1.442857e+01
 1.757143e+01
 2.028571e+01
 2.100000e+01
 2.057143e+01
 1.857143e+01
 1.557143e+01
 1.142857e+01
 6.285714e+00
 1.142857e+00
 -2.857143e+00
 -5.857143e+00
 -7.857143e+00
 -8.714286e+00
 -9.857143e+00
 -1.014286e+01
 -1.057143e+01
 -1.171429e+01
 -1.314286e+01
 -14
 -1.485714e+01
 -1.542857e+01
 -1.528571e+01
 -1.557143e+01
 -15
 -1.300000e+01
 -1.071429e+01
 -8.142857e+00
 -6.571429e+00
 -5.714286e+00
 -4.571429e+00
 -2.714286e+00
 -2.000000e+00
 -2.428571e+00
 -3.857143e+00
 -5.142857e+00
 -5.142857e+00
 -4.142857e+00
 -3.142857e+00
 -2.285714e+00
 -1.285714e+00
 -1
 -7.142857e-01
 -8.571429e-01
 -1.857143e+00
 -2.714286e+00
 -1.428571e-01
 8.285714e+00
 2.542857e+01
 5.257143e+01
 8.914286e+01
 1.325714e+02
 1.744286e+02
 2.044286e+02
 2.151429e+02
 2.048571e+02
 1.718571e+02
 1.168571e+02
 4.485714e+01
 -3.471429e+01
 -1.065714e+02
 -1.577143e+02
 -1.858571e+02
 -1.928571e+02
 -1.818571e+02
 -1.577143e+02
 -1.248571e+02
 -8.971429e+01
 -6.114286e+01
 -4.242857e+01
 -3.185714e+01
 -2.757143e+01
 -2.600000e+01
 -2.300000e+01
 -2.100000e+01
 -1.942857e+01
 -1.714286e+01
 -1.471429e+01
 -1.114286e+01
 -6.857143e+00
 -4.428571e+00
 -3.285714e+00
 -2.285714e+00
 -2.142857e+00
 -1.571429e+00
 -7.142857e-01
 -7.142857e-01
 -1.428571e+00
 -1.428571e+00
 -1.428571e+00
 -5.714286e-01
 4.285714e-01
 7.142857e-01
 4.285714e-01
 5.714286e-01
 5.714286e-01
 1.285714e+00
 1.428571e+00
 1.571429e+00
 1.571429e+00
 1.571429e+00
 1.571429e+00
 2.000000e+00
 2.428571e+00
 2.714286e+00
 2.714286e+00
 1.714286e+00
 8.571429e-01
 1.000000e+00
 1.714286e+00
 1.857143e+00
 1.714286e+00
 1.142857e+00
 1
 1.428571e+00
 2.428571e+00
 2.571429e+00
 2.000000e+00
 1.714286e+00
 2.571429e+00
 4.428571e+00
 6.571429e+00
 7.571429e+00
 7.857143e+00
 8.142857e+00
 8.857143e+00
 9.571429e+00
 9.428571e+00
 8.714286e+00
 7.857143e+00
 7.714286e+00
 8.000000e+00
 9
 9.857143e+00
 1.028571e+01
 1.071429e+01
 1.114286e+01
 1.200000e+01
 1.357143e+01
 1.442857e+01
 1.442857e+01
 1.500000e+01
 1.600000e+01
 17
 1.757143e+01
 1.742857e+01
 1.685714e+01
 1.685714e+01
 1.685714e+01
 1.585714e+01
 1.471429e+01
 14
 1.371429e+01
 13
 1.142857e+01
 9.428571e+00
 8
 7.285714e+00
 5.857143e+00
 3.142857e+00
 -2.857143e-01
 -2.714286e+00
 -4.428571e+00
 -6
 -8.428571e+00
 -1.157143e+01
 -1.428571e+01
 -1.528571e+01
 -1.600000e+01
 -1.700000e+01
 -1.800000e+01
 -1.900000e+01
 -19
 -18
 -17
 -1.614286e+01
 -1.542857e+01
 -1.485714e+01
 -1.428571e+01
 -1.371429e+01
 -1.285714e+01
 -12
 -1.100000e+01
 -9.857143e+00
 -8.857143e+00
 -7.857143e+00
 -6.428571e+00
 -5.714286e+00
 -5.142857e+00
 -5.142857e+00
 -5.000000e+00
 -5.285714e+00
 -4.714286e+00
 -3.571429e+00
 -2.571429e+00
 -1.428571e+00
 -1.000000e+00
 -7.142857e-01
 -1.428571e-01
 5.714286e-01
 8.571429e-01
 5.714286e-01
 -1.428571e-01
 -4.285714e-01
 -2.857143e-01
 5.714286e-01
 1
 1.000000e+00
 1.142857e+00
 1.857143e+00
 3
 4.142857e+00
 4.857143e+00
 4.714286e+00
 3.571429e+00
 2.571429e+00
 1.857143e+00
 1.142857e+00
 5.714286e-01
 5.551115e-17
 1.110223e-16
 5.714286e-01
 2.000000e+00
 2.857143e+00
 3.571429e+00
 3.857143e+00
 3.428571e+00
 2.571429e+00
 1.714286e+00
 1
 7.142857e-01
 4.285714e-01
 -5.714286e-01
 -1.571429e+00
 -1.285714e+00
 -2.857143e-01
 1.428571e-01
 1.428571e-01
 -5.714286e-01
 -1
 -2.857143e-01
 1.428571e-01
 -2.857143e-01
 -7.142857e-01
 -1.857143e+00
 -2.428571e+00
 -2.000000e+00
 -1.142857e+00
 -1.000000e+00
 -1
 -1.000000e+00
 -7.142857e-01
 4.285714e-01
 7.142857e-01
 2.857143e-01
 -4.285714e-01
 -1.000000e+00
 -1.428571e+00
 -1.714286e+00
 -2.142857e+00
 -2.000000e+00
 -2
 -1.857143e+00
 -1.142857e+00
 -4.285714e-01
 7.142857e-01
 1.714286e+00
 2.000000e+00
 1.857143e+00
 1.857143e+00
 1.571429e+00
 1.285714e+00
 1.000000e+00
 -5.551115e-17
 -1.285714e+00
 -2.285714e+00
 -2.428571e+00
 -2.142857e+00
 -1.714286e+00
 -1.428571e+00
 -1.857143e+00
 -1.857143e+00
 -7.142857e-01
 4.285714e-01
 1.142857e+00
 1.571429e+00
 1.428571e+00
 1.714286e+00
 2.142857e+00
 3.142857e+00
 2.714286e+00
 2.000000e+00
 8.571429e-01
 2.857143e-01
 4.285714e-01
 1.000000e+00
 1
 5.714286e-01
 7.142857e-01
 1.428571e+00
 2.428571e+00
 3.714286e+00
 4.571429e+00
 4
 4.428571e+00
 4.857143e+00
 5.428571e+00
 5.714286e+00
 6.142857e+00
 6.714286e+00
 8
 9.714286e+00
 1.257143e+01
 1.600000e+01
 1.914286e+01
 2.114286e+01
 21
 1.942857e+01
 1.728571e+01
 1.385714e+01
 8.714286e+00
 2.714286e+00
 -3
 -7
 -9.285714e+00
 -1.042857e+01
 -1.142857e+01
 -1.128571e+01
 -1.085714e+01
 -1.042857e+01
 -9.714286e+00
 -9.571429e+00
 -9.714286e+00
 -1.085714e+01
 -1.214286e+01
 -1.314286e+01
 -1.314286e+01
 -1.242857e+01
 -1.142857e+01
 -1.057143e+01
 -9
 -7.857143e+00
 -6.285714e+00
 -5.285714e+00
 -4.857143e+00
 -4.428571e+00
 -4.571429e+00
 -4.714286e+00
 -4.714286e+00
 -3
 -1
 7.142857e-01
 1.428571e+00
 8.571429e-01
 7.142857e-01
 1.000000e+00
 -2.220446e-16
 -2.285714e+00
 -5.285714e+00
 -4.428571e+00
 3.571429e+00
 1.857143e+01
 4.028571e+01
 7.042857e+01
 1.085714e+02
 1.498571e+02
 1.847143e+02
 2.028571e+02
 201
 1.792857e+02
 1.367143e+02
 7.585714e+01
 4.142857e+00
 -6.771429e+01
 -1.250000e+02
 -1.617143e+02
 -1.787143e+02
 -178
 -1.617143e+02
 -1.351429e+02
 -1.045714e+02
 -7.642857e+01
 -5.671429e+01
 -4.328571e+01
 -3.471429e+01
 -2.942857e+01
 -2.514286e+01
 -2.085714e+01
 -1.742857e+01
 -1.371429e+01
 -10
 -7
 -5.000000e+00
 -4.571429e+00
 -4.571429e+00
 -4.857143e+00
 -3.714286e+00
 -2.714286e+00
 -1.571429e+00
 -1.142857e+00
 -8.571429e-01
 -2.857143e-01
 1.428571e-01
 4.285714e-01
 -1.428571e-01
 -1.142857e+00
 -1.857143e+00
 -1.428571e+00
 -4.285714e-01
 1.285714e+00
 1.857143e+00
 2.142857e+00
 2
 2.285714e+00
 2.571429e+00
 2.142857e+00
 1.142857e+00
 1.428571e-01
 -5.714286e-01
 -1.142857e+00
 -1.142857e+00
 -7.142857e-01
 0
 7.142857e-01
 8.571429e-01
 8.571429e-01
 2.142857e+00
 3.571429e+00
 4.428571e+00
 4.285714e+00
 3.714286e+00
 3.428571e+00
 4
 4.857143e+00
 4.857143e+00
 4.428571e+00
 4.428571e+00
 4.714286e+00
 5.714286e+00
 7.142857e+00
 7.714286e+00
 7.142857e+00
 7
 6.571429e+00
 6.571429e+00
 7
 7.142857e+00
 7.142857e+00
 8.571429e+00
 1.000000e+01
 1.171429e+01
 1.385714e+01
 1.528571e+01
 1.614286e+01
 1.614286e+01
 1.514286e+01
 14
 1.400000e+01
 1.342857e+01
 1.314286e+01
 1.285714e+01
 1.285714e+01
 1.371429e+01
 1.557143e+01
 16
 1.557143e+01
 1.471429e+01
 1.300000e+01
 1.171429e+01
 1.042857e+01
 8.000000e+00
 5.571429e+00
 3.571429e+00
 2
 1.142857e+00
 5.714286e-01
 -7.142857e-01
 -2.285714e+00
 -3.571429e+00
 -5.428571e+00
 -7.285714e+00
 -8.857143e+00
 -1.042857e+01
 -1.171429e+01
 -13
 -1.385714e+01
 -1.371429e+01
 -1.314286e+01
 -1.242857e+01
 -1.228571e+01
 -1.300000e+01
 -1.285714e+01
 -1.228571e+01
 -1.142857e+01
 -1.114286e+01
 -1.128571e+01
 -1.171429e+01
 -1.114286e+01
 -10
 -9.285714e+00
 -8.571429e+00
 -8.142857e+00
 -7.857143e+00
 -7.142857e+00
 -5.285714e+00
 -3.857143e+00
 -2.571429e+00
 -2.428571e+00
 -2.428571e+00
 -2.142857e+00
 -8.571429e-01
 -2.857143e-01
 -2.857143e-01
 -1
 -1.000000e+00
 5.551115e-17
 1
 1.428571e+00
 8.571429e-01
 8.571429e-01
 1.142857e+00
 1.857143e+00
 1.857143e+00
 2.000000e+00
 2.142857e+00
 3
 3.714286e+00
 4.000000e+00
 3.714286e+00
 3.857143e+00
 3.714286e+00
 3.428571e+00
 2.571429e+00
 1.000000e+00
 1.428571e-01
 2.857143e-01
 2.857143e-01
 2.857143e-01
 2.857143e-01
 4.285714e-01
 1.571429e+00
 2.857143e+00
 3.571429e+00
 3.428571e+00
 3.285714e+00
 2.285714e+00
 1.714286e+00
 1.000000e+00
 4.285714e-01
 -4.285714e-01
 -1.428571e+00
 -2.285714e+00
 -2.142857e+00
 -1
 -2.857143e-01
 -1.428571e-01
 -4.285714e-01
 1.428571e-01
 1.142857e+00
 2
 2.142857e+00
 1.571429e+00
 8.571429e-01
 2.857143e-01
 -1.428571e-01
 -5.714286e-01
 -1
 -1.571429e+00
 -1.857143e+00
 -2.285714e+00
 -1.571429e+00
 -1
 -4.285714e-01
 -2.857143e-01
 -7.142857e-01
 -1
 -7.142857e-01
 -1.428571e-01
 -1.428571e-01
 -2.857143e-01
 -7.142857e-01
 -1
 -5.714286e-01
 4.285714e-01
 4.285714e-01
 4.285714e-01
 1.428571e-01
 1.428571e-01
 5.714286e-01
 1.285714e+00
 1.428571e+00
 7.142857e-01
 4.285714e-01
 2.857143e-01
 5.714286e-01
 1.000000e+00
 1.000000e+00
 4.285714e-01
 2.857143e-01
 1.428571e-01
 0
 -1.428571e-01
 0
 -4.285714e-01
 -8.571429e-01
 -1
 -8.571429e-01
 -1.428571e-01
 7.142857e-01
 1.857143e+00
 2.428571e+00
 3.571429e+00
 5
 6.857143e+00
 8.428571e+00
 9.285714e+00
 8.714286e+00
 8
 7.285714e+00
 6.714286e+00
 5.571429e+00
 4.428571e+00
 3.714286e+00
 3.571429e+00
 5.571429e+00
 8.714286e+00
 12
 1.514286e+01
 17
 1.728571e+01
 1.714286e+01
 1.614286e+01
 1.271429e+01
 7.285714e+00
 1.285714e+00
 -4.285714e+00
 -7.285714e+00
 -9.142857e+00
 -1.085714e+01
 -1.185714e+01
 -1.157143e+01
 -1.071429e+01
 -8.857143e+00
 -7.714286e+00
 -8
 -8.714286e+00
 -9.714286e+00
 -11
 -1.171429e+01
 -1.228571e+01
 -1.285714e+01
 -1.285714e+01
 -1.300000e+01
 -1.257143e+01
 -1.085714e+01
 -8.714286e+00
 -6.857143e+00
 -5.714286e+00
 -5.142857e+00
 -4.428571e+00
 -3.285714e+00
 -2.285714e+00
 -2.285714e+00
 -2.857143e+00
 -3.571429e+00
 -3.285714e+00
 -2.428571e+00
 -1.142857e+00
 -2.857143e-01
 -4.285714e-01
 -1.428571e+00
 -2.571429e+00
 -3.714286e+00
 -3.285714e+00
 2.857143e-01
 9.428571e+00
 2.628571e+01
 5.185714e+01
 8.757143e+01
 1.308571e+02
 1.741429e+02
 208
 2.241429e+02
 2.192857e+02
 1.928571e+02
 1.441429e+02
 7.628571e+01
 -1.714286e+00
 -7.828571e+01
 -1.408571e+02
 -1.815714e+02
 -1.998571e+02
 -198
 -1.795714e+02
 -1.515714e+02
 -1.195714e+02
 -8.785714e+01
 -6.271429e+01
 -4.528571e+01
 -3.585714e+01
 -3.185714e+01
 -2.928571e+01
 -2.485714e+01
 -2.085714e+01
 -1.771429e+01
 -1.500000e+01
 -1.228571e+01
 -9.142857e+00
 -6.000000e+00
 -4.142857e+00
 -3.857143e+00
 -3.857143e+00
 -4.428571e+00
 -4.142857e+00
 -3.571429e+00
 -2.857143e+00
 -2.285714e+00
 -1.428571e+00
 -1.000000e+00
 -7.142857e-01
 0
 4.285714e-01
 4.285714e-01
 -1.428571e-01
 -8.571429e-01
 -1.285714e+00
 -1
 -4.285714e-01
 -1.428571e-01
 5.551115e-17
 5.551115e-17
 1.428571e-01
 2.857143e-01
 1
 1
 8.571429e-01
 4.285714e-01
 2.857143e-01
 4.285714e-01
 1.142857e+00
 1.571429e+00
 1.142857e+00
 5.714286e-01
 1.428571e-01
 5.714286e-01
 1.142857e+00
 1.714286e+00
 1.571429e+00
 1.714286e+00
 2.285714e+00
 3.571429e+00
 4.857143e+00
 5.571429e+00
 5.571429e+00
 5.428571e+00
 5.285714e+00
 5.428571e+00
 6.142857e+00
 6.571429e+00
 7
 7.285714e+00
 8.285714e+00
 9.571429e+00
 1.128571e+01
 1.257143e+01
 1.328571e+01
 1.328571e+01
 1.342857e+01
 1.371429e+01
 1.414286e+01
 1.442857e+01
 1.457143e+01
 1.428571e+01
 1.385714e+01
 1.471429e+01
 1.542857e+01
 1.614286e+01
 16
 1.471429e+01
 1.371429e+01
 1.342857e+01
 1.285714e+01
 1.200000e+01
 1.014286e+01
 8.285714e+00
 7
 6.285714e+00
 5.857143e+00
 5.000000e+00
 3.714286e+00
 2.000000e+00
 4.285714e-01
 -1.142857e+00
 -2.857143e+00
 -4.571429e+00
 -7.285714e+00
 -1.042857e+01
 -1.242857e+01
 -14
 -1.514286e+01
 -16
 -1.742857e+01
 -1.814286e+01
 -1.842857e+01
 -1.828571e+01
 -18
 -1.728571e+01
 -1.657143e+01
 -16
 -1.500000e+01
 -1.357143e+01
 -1.157143e+01
 -9.571429e+00
 -8.571429e+00
 -8.428571e+00
 -8
 -7.571429e+00
 -6.714286e+00
 -6.142857e+00
 -6.714286e+00
 -7.000000e+00
 -6.714286e+00
 -5.857143e+00
 -4.285714e+00
 -3.285714e+00
 -3.285714e+00
 -3.142857e+00
 -2.142857e+00
 -8.571429e-01
 4.285714e-01
 1
 7.142857e-01
 5.714286e-01
 8.571429e-01
 7.142857e-01
 5.714286e-01
 -1.428571e-01
 -1.000000e+00
 -1.428571e+00
 -1.142857e+00
 -4.285714e-01
 5.714286e-01
 1.428571e+00
 2.285714e+00
 3.000000e+00
 3.285714e+00
 3.428571e+00
 3.142857e+00
 2.714286e+00
 1.857143e+00
 5.714286e-01
 -1.000000e+00
 -1.285714e+00
 -8.571429e-01
 -2.857143e-01
 -4.285714e-01
 -5.714286e-01
 -2.857143e-01
 8.571429e-01
 2.142857e+00
 2.285714e+00
 2.142857e+00
 1.571429e+00
 1.142857e+00
 8.571429e-01
 4.285714e-01
 -5.714286e-01
 -1.285714e+00
 -2.000000e+00
 -2.428571e+00
 -2.142857e+00
 -1.428571e+00
 -4.285714e-01
 4.285714e-01
 5.714286e-01
 4.285714e-01
 7.142857e-01
 1.000000e+00
 8.571429e-01
 1.428571e-01
 -1
 -1.571429e+00
 -1.142857e+00
 -7.142857e-01
 -4.285714e-01
 -8.571429e-01
 -1.428571e+00
 -1.571429e+00
 -1.571429e+00
 -1.857143e+00
 -2
 -2.714286e+00
 -2.857143e+00
 -2.428571e+00
 -1.571429e+00
 -4.285714e-01
 5.714286e-01
 8.571429e-01
 5.714286e-01
 4.285714e-01
 -2.857143e-01
 -1.142857e+00
 -2.142857e+00
 -3.285714e+00
 -3.857143e+00
 -3.285714e+00
 -2.428571e+00
 -1.285714e+00
 2.857143e-01
 1.714286e+00
 2.285714e+00
 2.000000e+00
 1.285714e+00
 1.000000e+00
 1.142857e+00
 7.142857e-01
 -8.571429e-01
 -2.000000e+00
 -2.000000e+00
 -4.285714e-01
 5.714286e-01
 2.857143e-01
 -7.142857e-01
 -8.571429e-01
 0
 1.285714e+00
 1.428571e+00
 7.142857e-01
 0
 0
 7.142857e-01
 1.857143e+00
 2.571429e+00
 2.285714e+00
 2.857143e+00
 3.857143e+00
 5.714286e+00
 7.428571e+00
 7.857143e+00
 7
 6.285714e+00
 5.857143e+00
 5.714286e+00
 5.714286e+00
 5.428571e+00
 5.714286e+00
 7.285714e+00
 9.857143e+00
 1.228571e+01
 1.457143e+01
 1.571429e+01
 1.557143e+01
 1.428571e+01
 1.171429e+01
 8.142857e+00
 4.714286e+00
 1.142857e+00
 -2.285714e+00
 -5
 -7.285714e+00
 -8.571429e+00
 -9
 -9.571429e+00
 -1.071429e+01
 -12
 -1.342857e+01
 -1.428571e+01
 -1.428571e+01
 -1.471429e+01
 -1.557143e+01
 -1.585714e+01
 -1.571429e+01
 -1.414286e+01
 -1.200000e+01
 -1.071429e+01
 -1.028571e+01
 -9.285714e+00
 -7.857143e+00
 -6.571429e+00
 -5.857143e+00
 -6.000000e+00
 -6.428571e+00
 -6.142857e+00
 -5.428571e+00
 -4.285714e+00
 -2.857143e+00
 -1.571429e+00
 -1.000000e+00
 -5.714286e-01
 -1.428571e-01
 -4.285714e-01
 -1.428571e+00
 -3.714286e+00
 -6
 -6.142857e+00
 -1.142857e+00
 11
 3.000000e+01
 5.671429e+01
 9.171429e+01
 1.344286e+02
 1.788571e+02
 215
 2.327143e+02
 2.282857e+02
 2.018571e+02
 1.538571e+02
 8.700000e+01
 8.571429e+00
 -7.042857e+01
 -1.364286e+02
 -1.811429e+02
 -2.038571e+02
 -2.048571e+02
 -1.877143e+02
 -1.585714e+02
 -1.247143e+02
 -9.285714e+01
 -6.671429e+01
 -4.700000e+01
 -3.442857e+01
 -2.857143e+01
 -2.642857e+01
 -2.514286e+01
 -2.328571e+01
 -2.028571e+01
 -1.771429e+01
 -1.542857e+01
 -1.314286e+01
 -1.100000e+01
 -9.142857e+00
 -6.571429e+00
 -4.714286e+00
 -3.714286e+00
 -3.571429e+00
 -4.000000e+00
 -3.714286e+00
 -2.571429e+00
 -1.142857e+00
 -2.857143e-01
 2.775558e-16
 7.142857e-01
 1.857143e+00
 2.714286e+00
 3.285714e+00
 2.857143e+00
 2.142857e+00
 1.428571e+00
 8.571429e-01
 5.714286e-01
 8.571429e-01
 1.000000e+00
 4.285714e-01
 -1.428571e-01
 -4.285714e-01
 -5.551115e-17
 5.714286e-01
 2.857143e-01
 -4.285714e-01
 -2.857143e-01
 1.428571e-01
 1.142857e+00
 1.428571e+00
 1.285714e+00
 1.285714e+00
 1.571429e+00
 1.285714e+00
 1.142857e+00
 1
 1.142857e+00
 1
 8.571429e-01
 8.571429e-01
 1.285714e+00
 2.142857e+00
 3
 3.571429e+00
 4
 4.714286e+00
 5.285714e+00
 6.428571e+00
 7
 7.428571e+00
 7.571429e+00
 7.571429e+00
 7.571429e+00
 8.571429e+00
 9.571429e+00
 9.857143e+00
 9.285714e+00
 9.428571e+00
 1.014286e+01
 1.185714e+01
 13
 1.328571e+01
 1.342857e+01
 1.457143e+01
 1.614286e+01
 1.757143e+01
 1.814286e+01
 1.785714e+01
 1.728571e+01
 1.671429e+01
 16
 1.514286e+01
 1.457143e+01
 1.357143e+01
 1.242857e+01
 1.157143e+01
 1.157143e+01
 1.185714e+01
 1.171429e+01
 1.057143e+01
 8.857143e+00
 7.428571e+00
 6.714286e+00
 5.571429e+00
 3.857143e+00
 1.714286e+00
 -4.285714e-01
 -2.714286e+00
 -4.857143e+00
 -7.285714e+00
 -9.714286e+00
 -12
 -1.471429e+01
 -1.728571e+01
 -19
 -1.985714e+01
 -1.971429e+01
 -1.957143e+01
 -2.014286e+01
 -20
 -1.857143e+01
 -1.657143e+01
 -1.428571e+01
 -1.328571e+01
 -1.271429e+01
 -1.157143e+01
 -1.028571e+01
 -9.142857e+00
 -8.571429e+00
 -8.285714e+00
 -8.714286e+00
 -8.428571e+00
 -7.857143e+00
 -6.857143e+00
 -5.285714e+00
 -4
 -3.428571e+00
 -2.714286e+00
 -1.714286e+00
 -4.285714e-01
 4.285714e-01
 -2.857143e-01
 -1.428571e+00
 -2.285714e+00
 -2.285714e+00
 -2.285714e+00
 -1.857143e+00
 -1.857143e+00
 -1.857143e+00
 -1.285714e+00
 -4.285714e-01
 2.857143e-01
 7.142857e-01
 -1.110223e-16
 -1.142857e+00
 -1.714286e+00
 -1.857143e+00
 -1.285714e+00
 -1.000000e+00
 -7.142857e-01
 -4.285714e-01
 4.285714e-01
 1.428571e+00
 2.285714e+00
 2.285714e+00
 2.000000e+00
 1.285714e+00
 8.571429e-01
 8.571429e-01
 1.142857e+00
 1.571429e+00
 1.714286e+00
 1.857143e+00
 1.857143e+00
 2.142857e+00
 2.714286e+00
 3
 2.714286e+00
 1.571429e+00
 1.142857e+00
 1.428571e+00
 2.142857e+00
 2.571429e+00
 1.857143e+00
 8.571429e-01
 5.714286e-01
 5.714286e-01
 4.285714e-01
 -2.857143e-01
 -2
 -3.285714e+00
 -3.285714e+00
 -2.857143e+00
 -2.285714e+00
 -1.857143e+00
 -1.714286e+00
 -1.000000e+00
 -1.110223e-16
 4.285714e-01
 4.285714e-01
 -1.110223e-16
 -8.571429e-01
 -1.571429e+00
 -2.285714e+00
 -3.000000e+00
 -3.000000e+00
 -2.000000e+00
 -1.571429e+00
 -8.571429e-01
 -2.857143e-01
 -1.110223e-16
 7.142857e-01
 1.000000e+00
 2.857143e-01
 -4.285714e-01
 -8.571429e-01
 -1.571429e+00
 -1.428571e+00
 -1.428571e-01
 0
 -5.551115e-17
 0
 -5.551115e-17
 8.571429e-01
 1.714286e+00
 1.285714e+00
 2.857143e-01
 1.428571e-01
 5.714286e-01
 1.428571e+00
 2.142857e+00
 1.428571e+00
 4.285714e-01
 2.857143e-01
 2.857143e-01
 2.857143e-01
 1.428571e-01
 -7.142857e-01
 -1.571429e+00
 -1.571429e+00
 -1.142857e+00
 -5.714286e-01
 -1.428571e-01
 -5.714286e-01
 -7.142857e-01
 2.857143e-01
 7.142857e-01
 1.571429e+00
 1.714286e+00
 1.285714e+00
 7.142857e-01
 8.571429e-01
 8.571429e-01
 1.142857e+00
 1.714286e+00
 1.857143e+00
 2.714286e+00
 4.285714e+00
 5.571429e+00
 6.857143e+00
 8.142857e+00
 8.285714e+00
 8.285714e+00
 7.285714e+00
 6.428571e+00
 6.285714e+00
 7.428571e+00
 8.428571e+00
 9.857143e+00
 1.228571e+01
 1.585714e+01
 2.000000e+01
 2.300000e+01
 2.314286e+01
 2.171429e+01
 1.928571e+01
 1.557143e+01
 1.085714e+01
 5.285714e+00
 -2.857143e-01
 -4.714286e+00
 -7.857143e+00
 -1.014286e+01
 -1.128571e+01
 -1.157143e+01
 -1.185714e+01
 -1.285714e+01
 -1.400000e+01
 -15
 -1.542857e+01
 -1.571429e+01
 -1.657143e+01
 -1.728571e+01
 -1.742857e+01
 -1.671429e+01
 -1.514286e+01
 -1.328571e+01
 -12
 -1.071429e+01
 -9.285714e+00
 -7.714286e+00
 -5.714286e+00
 -3.857143e+00
 -3.285714e+00
 -3.285714e+00
 -2.857143e+00
 -2.142857e+00
 -1.142857e+00
 -4.285714e-01
 -4.285714e-01
 -5.714286e-01
 -1.665335e-16
 0
 -4.285714e-01
 -1.714286e+00
 -3.857143e+00
 -6.000000e+00
 -6.000000e+00
 -1.571429e+00
 10
 2.871429e+01
 5.542857e+01
 9.114286e+01
 1.347143e+02
 1.798571e+02
 2.171429e+02
 2.364286e+02
 2.332857e+02
 2.077143e+02
 1.592857e+02
 9.014286e+01
 9.142857e+00
 -7.257143e+01
 -1.427143e+02
 -1.911429e+02
 -216
 -2.178571e+02
 -1.998571e+02
 -1.687143e+02
 -1.328571e+02
 -9.728571e+01
 -6.714286e+01
 -4.514286e+01
 -3.142857e+01
 -2.485714e+01
 -2.314286e+01
 -22
 -1.985714e+01
 -1.828571e+01
 -1.614286e+01
 -1.371429e+01
 -1.128571e+01
 -8.428571e+00
 -5.428571e+00
 -3.714286e+00
 -2.142857e+00
 -5.714286e-01
 -1.428571e-01
 1.428571e-01
 4.285714e-01
 2.857143e-01
 1.000000e+00
 2.285714e+00
 2.142857e+00
 1.857143e+00
 1.571429e+00
 1.571429e+00
 2.000000e+00
 2.285714e+00
 1.571429e+00
 8.571429e-01
 8.571429e-01
 1.142857e+00
 1.857143e+00
 2.142857e+00
 1.714286e+00
 1.571429e+00
 1.571429e+00
 1.571429e+00
 2.000000e+00
 2.142857e+00
 2.285714e+00
 2.571429e+00
 2.857143e+00
 3.142857e+00
 4.000000e+00
 4.428571e+00
 4.285714e+00
 3.428571e+00
 2.428571e+00
 1.714286e+00
 1.857143e+00
 2.142857e+00
 1.857143e+00
 2.000000e+00
 2.714286e+00
 4.142857e+00
 5.428571e+00
 6.285714e+00
 6.000000e+00
 5.571429e+00
 5
 5
 5.285714e+00
 5.857143e+00
 6.142857e+00
 6.714286e+00
 7.857143e+00
 8.714286e+00
 9.857143e+00
 1.028571e+01
 9.857143e+00
 9.000000e+00
 8.571429e+00
 8.000000e+00
 8.428571e+00
 9.142857e+00
 9.714286e+00
 1.057143e+01
 1.185714e+01
 1.328571e+01
 1.514286e+01
 1.628571e+01
 1.600000e+01
 1.571429e+01
 1.542857e+01
 1.485714e+01
 1.400000e+01
 1.314286e+01
 1.200000e+01
 1.142857e+01
 1.100000e+01
 1.014286e+01
 1.028571e+01
 1.057143e+01
 1.028571e+01
 9.714286e+00
 8.571429e+00
 7.428571e+00
 7
 6.571429e+00
 5.142857e+00
 3.285714e+00
 2
 1.285714e+00
 7.142857e-01
 -4.285714e-01
 -3
 -5.571429e+00
 -7.571429e+00
 -9.714286e+00
 -1.185714e+01
 -1.400000e+01
 -16
 -1.728571e+01
 -1.757143e+01
 -1.742857e+01
 -1.700000e+01
 -1.571429e+01
 -1.457143e+01
 -1.342857e+01
 -12
 -1.057143e+01
 -9.142857e+00
 -7.714286e+00
 -7.142857e+00
 -6.857143e+00
 -6.714286e+00
 -6.571429e+00
 -6.142857e+00
 -5.714286e+00
 -5.285714e+00
 -5.285714e+00
 -5.285714e+00
 -4.714286e+00
 -3.714286e+00
 -3.142857e+00
 -3.000000e+00
 -3.285714e+00
 -3.428571e+00
 -2.571429e+00
 -1.142857e+00
 2.857143e-01
 1
 1.571429e+00
 2.285714e+00
 3.571429e+00
 4.571429e+00
 4.857143e+00
 4.142857e+00
 3.142857e+00
 2.428571e+00
 1.714286e+00
 1.571429e+00
 1.285714e+00
 5.714286e-01
 -1.428571e-01
 -1.428571e-01
 0
 8.571429e-01
 1.857143e+00
 1.571429e+00
 1
 1.428571e+00
 1.857143e+00
 2.285714e+00
 2.285714e+00
 1.142857e+00
 4.285714e-01
 5.714286e-01
 5.714286e-01
 5.714286e-01
 1.000000e+00
 1.142857e+00
 1.142857e+00
 2.000000e+00
 2.142857e+00
 2.428571e+00
 3.000000e+00
 2.571429e+00
 1.714286e+00
 1.428571e+00
 1.142857e+00
 1.142857e+00
 1.428571e+00
 7.142857e-01
 1.428571e-01
 -5.551115e-17
 -4.285714e-01
 -5.714286e-01
 -2.857143e-01
 -7.142857e-01
 -1.142857e+00
 -1.285714e+00
 -1.285714e+00
 -2.857143e-01
 4.285714e-01
 -1.428571e-01
 -1
 -1.142857e+00
 -8.571429e-01
 -2.857143e-01
 -1.110223e-16
 -8.571429e-01
 -1
 -4.285714e-01
 1.428571e-01
 4.285714e-01
 7.142857e-01
 2.857143e-01
 0
 1.428571e-01
 0
 1.428571e-01
 7.142857e-01
 5.714286e-01
 1.428571e-01
 2.857143e-01
 4.285714e-01
 1
 1.428571e+00
 1.142857e+00
 2.857143e-01
 1.428571e-01
 2.857143e-01
 8.571429e-01
 1.000000e+00
 4.285714e-01
 -1.428571e-01
 0
 4.285714e-01
 8.571429e-01
 7.142857e-01
 2.857143e-01
 -1.428571e-01
 -4.285714e-01
 -1.428571e-01
 -2.857143e-01
 -2.857143e-01
 -1.428571e-01
 -4.285714e-01
 -2.857143e-01
 0
 2.857143e-01
 7.142857e-01
 5.714286e-01
 -5.551115e-17
 -2.857143e-01
 0
 0
 4.285714e-01
 5.714286e-01
 4.285714e-01
 5.714286e-01
 5.714286e-01
 5.714286e-01
 1.428571e+00
 1.857143e+00
 1.857143e+00
 1.714286e+00
 2
 3.428571e+00
 4.857143e+00
 5.142857e+00
 4.714286e+00
 4.285714e+00
 4.857143e+00
 6.285714e+00
 7.571429e+00
 8.571429e+00
 9.857143e+00
 1.214286e+01
 1.542857e+01
 1.942857e+01
 22
 2.314286e+01
 2.228571e+01
 2.057143e+01
 18
 1.414286e+01
 8.714286e+00
 2.428571e+00
 -3.571429e+00
 -7.714286e+00
 -10
 -1.171429e+01
 -1.200000e+01
 -1.214286e+01
 -1.200000e+01
 -1.114286e+01
 -1.057143e+01
 -11
 -12
 -1.357143e+01
 -1.557143e+01
 -1.657143e+01
 -1.771429e+01
 -1.828571e+01
 -18
 -1.742857e+01
 -1.657143e+01
 -1.514286e+01
 -1.371429e+01
 -1.157143e+01
 -8.857143e+00
 -7.000000e+00
 -5.714286e+00
 -5
 -4.000000e+00
 -2.714286e+00
 -1.571429e+00
 -2.000000e+00
 -2.571429e+00
 -2.571429e+00
 -2
 -1.428571e+00
 -1.285714e+00
 -2.571429e+00
 -4.285714e+00
 -5.428571e+00
 -6.142857e+00
 -4.000000e+00
 3.000000e+00
 1.628571e+01
 36
 6.428571e+01
 1.007143e+02
 1.421429e+02
 1.805714e+02
 2.057143e+02
 2.114286e+02
 198
 1.638571e+02
 1.087143e+02
 3.842857e+01
 -3.842857e+01
 -1.085714e+02
 -1.615714e+02
 -1.927143e+02
 -2.027143e+02
 -1.927143e+02
 -1.680000e+02
 -1.357143e+02
 -102
 -7.214286e+01
 -4.928571e+01
 -3.414286e+01
 -2.714286e+01
 -2.485714e+01
 -2.385714e+01
 -2.171429e+01
 -1.842857e+01
 -1.585714e+01
 -1.371429e+01
 -1.128571e+01
 -9.142857e+00
 -7.142857e+00
 -4.857143e+00
 -3.714286e+00
 -3.428571e+00
 -2.857143e+00
 -2.428571e+00
 -2
 -1.000000e+00
 -8.571429e-01
 -1.000000e+00
 -1.142857e+00
 -1.571429e+00
 -1.285714e+00
 -8.571429e-01
 -5.714286e-01
 -7.142857e-01
 -1.142857e+00
 -1.714286e+00
 -2.285714e+00
 -2.142857e+00
 -2.000000e+00
 -1.428571e+00
 -1.428571e+00
 -1
 -7.142857e-01
 5.714286e-01
 1.000000e+00
 7.142857e-01
 -1.142857e+00
 -2.714286e+00
 -3.000000e+00
 -2.428571e+00
 -1.285714e+00
 -8.571429e-01
 3.330669e-16
 1.285714e+00
 3.285714e+00
 4.428571e+00
 4.857143e+00
 3.857143e+00
 2.428571e+00
 1.285714e+00
 1.000000e+00
 1.571429e+00
 1.571429e+00
 1.857143e+00
 1.857143e+00
 2.571429e+00
 3.571429e+00
 4.000000e+00
 3.142857e+00
 1.714286e+00
 7.142857e-01
 1.428571e-01
 5.714286e-01
 1.428571e+00
 2.714286e+00
 4.142857e+00
 5.857143e+00
 6.714286e+00
 8.000000e+00
 8.714286e+00
 9
 8.285714e+00
 7.571429e+00
 7.000000e+00
 7.428571e+00
 8.285714e+00
 9.571429e+00
 1.028571e+01
 1.114286e+01
 1.200000e+01
 1.242857e+01
 1.300000e+01
 1.357143e+01
 1.371429e+01
 1.285714e+01
 1.228571e+01
 1.128571e+01
 1.142857e+01
 1.185714e+01
 1.085714e+01
 9.428571e+00
 8.571429e+00
 8.571429e+00
 9.285714e+00
 9.857143e+00
 9.142857e+00
 8.285714e+00
 7.714286e+00
 6.857143e+00
 5.428571e+00
 3.571429e+00
 8.571429e-01
 -2.142857e+00
 -4.428571e+00
 -6.857143e+00
 -8.000000e+00
 -9.000000e+00
 -1.042857e+01
 -1.128571e+01
 -1.142857e+01
 -1.157143e+01
 -1.214286e+01
 -1.271429e+01
 -1.385714e+01
 -1.500000e+01
 -1.542857e+01
 -1.628571e+01
 -1.671429e+01
 -1.542857e+01
 -1.400000e+01
 -1.271429e+01
 -1.071429e+01
 -9.142857e+00
 -6.857143e+00
 -4.857143e+00
 -4.142857e+00
 -4.857143e+00
 -5
 -4.571429e+00
 -3.714286e+00
 -2.857143e+00
 -3.142857e+00
 -3.142857e+00
 -2.142857e+00
 -5.714286e-01
 4.285714e-01
 -2.857143e-01
 -2.285714e+00
 -3
 -3.142857e+00
 -4.000000e+00
 -4.857143e+00
 -5.428571e+00
 -5.000000e+00
 -3.142857e+00
 -1.714286e+00
 -1.428571e+00
 1.428571e-01
 2.714286e+00
 4.428571e+00
 4.571429e+00
 3.285714e+00
 2.285714e+00
 3.142857e+00
 4
 2.428571e+00
 -1.428571e-01
 -1.857143e+00
 -1.428571e+00
 2.857143e-01
 1
 2.857143e-01
 4.285714e-01
 1.142857e+00
 3
 4.285714e+00
 3.714286e+00
 2.285714e+00
 1.571429e+00
 4.285714e-01
 -1.428571e-01
 1.428571e-01
 1.428571e-01
 4.285714e-01
 8.571429e-01
 1.142857e+00
 1.714286e+00
 3.000000e+00
 2.714286e+00
 1.285714e+00
 -5.714286e-01
 -1.714286e+00
 -2.428571e+00
 -2.428571e+00
 -2.714286e+00
 -2.571429e+00
 -2.000000e+00
 -8.571429e-01
 2.857143e-01
 1.571429e+00
 2.285714e+00
 2.714286e+00
 2.857143e+00
 2.428571e+00
 2.142857e+00
 1.714286e+00
 8.571429e-01
 -8.571429e-01
 -2
 -3.285714e+00
 -3.428571e+00
 -3.142857e+00
 -3.000000e+00
 -2.428571e+00
 -8.571429e-01
 2.857143e-01
 7.142857e-01
 5.714286e-01
 2.857143e-01
 5.714286e-01
 5.714286e-01
 -5.551115e-17
 -1.285714e+00
 -1.428571e+00
 0
 1.285714e+00
 7.142857e-01
 -7.142857e-01
 -1.428571e+00
 -1.142857e+00
 -5.714286e-01
 -1.571429e+00
 -3.571429e+00
 -4.285714e+00
 -3.571429e+00
 -3.000000e+00
 -2.285714e+00
 -2.285714e+00
 -2.142857e+00
 -1.285714e+00
 -2.857143e-01
 5.714286e-01
 1.142857e+00
 1.285714e+00
 1
 1.142857e+00
 1.285714e+00
 2.142857e+00
 2.714286e+00
 3.428571e+00
 4.285714e+00
 5.428571e+00
 6.428571e+00
 7.571429e+00
 8.571429e+00
 9.142857e+00
 9.142857e+00
 8.000000e+00
 7.428571e+00
 8.142857e+00
 10
 1.185714e+01
 1.300000e+01
 1.314286e+01
 1.342857e+01
 1.500000e+01
 1.500000e+01
 1.314286e+01
 8.571429e+00
 3.142857e+00
 -8.571429e-01
 -2.571429e+00
 -4.428571e+00
 -7.714286e+00
 -1.071429e+01
 -1.285714e+01
 -1.314286e+01
 -1.257143e+01
 -1.271429e+01
 -1.485714e+01
 -1.585714e+01
 -1.614286e+01
 -1.557143e+01
 -1.400000e+01
 -1.242857e+01
 -1.128571e+01
 -9.714286e+00
 -7.571429e+00
 -5.428571e+00
 -2.428571e+00
 -2.857143e-01
 -5.714286e-01
 -2.571429e+00
 -4.571429e+00
 -6.142857e+00
 -6.857143e+00
 -7.285714e+00
 -8
 -7.571429e+00
 -5.428571e+00
 -2.571429e+00
 -4.285714e-01
 7.142857e-01
 -1.428571e-01
 -2
 -4.142857e+00
 -5.714286e+00
 -4.714286e+00
 1.571429e+00
 1.442857e+01
 3.528571e+01
 6.557143e+01
 1.054286e+02
 1.518571e+02
 1.961429e+02
 2.271429e+02
 2.374286e+02
 2.254286e+02
 1.888571e+02
 1.297143e+02
 5.185714e+01
 -3.471429e+01
 -1.158571e+02
 -1.775714e+02
 -2.148571e+02
 -2.271429e+02
 -2.170000e+02
 -190
 -1.537143e+02
 -1.145714e+02
 -80
 -5.342857e+01
 -3.457143e+01
 -2.428571e+01
 -1.971429e+01
 -1.685714e+01
 -1.357143e+01
 -1.028571e+01
 -7.000000e+00
 -5.428571e+00
 -4.142857e+00
 -2.857143e+00
 -1.428571e+00
 -2.857143e-01
 7.142857e-01
 7.142857e-01
 4.285714e-01
 8.571429e-01
 5.714286e-01
 7.142857e-01
 7.142857e-01
 1.428571e-01
 -1.000000e+00
 -1.428571e+00
 -1.714286e+00
 -1.714286e+00
 -1.285714e+00
 -8.571429e-01
 -7.142857e-01
 -1.428571e-01
 7.142857e-01
 1.142857e+00
 2.142857e+00
 2.285714e+00
 2.428571e+00
 2.142857e+00
 1.714286e+00
 1.285714e+00
 1.285714e+00
 1.285714e+00
 1.571429e+00
 1.857143e+00
 1.428571e+00
 1.428571e+00
 1.857143e+00
 1.428571e+00
 8.571429e-01
 -2.857143e-01
 -1.714286e+00
 -1
 7.142857e-01
 1.714286e+00
 2.857143e+00
 3.857143e+00
 5
 6.714286e+00
 8.000000e+00
 7.428571e+00
 6.285714e+00
 5.142857e+00
 4.285714e+00
 4.857143e+00
 5.428571e+00
 5.428571e+00
 5.142857e+00
 5.857143e+00
 7.142857e+00
 9.285714e+00
 1.028571e+01
 1.014286e+01
 9.714286e+00
 9.714286e+00
 9.857143e+00
 9.571429e+00
 8.428571e+00
 7
 7
 7.571429e+00
 9.285714e+00
 1.128571e+01
 1.357143e+01
 1.514286e+01
 17
 1.771429e+01
 1.742857e+01
 1.657143e+01
 1.485714e+01
 1.257143e+01
 1.100000e+01
 9.571429e+00
 8.142857e+00
 7.857143e+00
 8.285714e+00
 8
 7.285714e+00
 6.285714e+00
 4.571429e+00
 3.428571e+00
 2.000000e+00
 -2.857143e-01
 -2.428571e+00
 -4.285714e+00
 -6
 -7.428571e+00
 -8.714286e+00
 -10
 -1.128571e+01
 -1.257143e+01
 -1.357143e+01
 -1.342857e+01
 -1.300000e+01
 -1.257143e+01
 -1.285714e+01
 -1.328571e+01
 -1.328571e+01
 -1.185714e+01
 -1.128571e+01
 -1.042857e+01
 -1.042857e+01
 -9.857143e+00
 -8.571429e+00
 -6.714286e+00
 -5.428571e+00
 -5
 -4.714286e+00
 -4.142857e+00
 -3
 -1.857143e+00
 -7.142857e-01
 -5.714286e-01
 1.110223e-16
 4.285714e-01
 8.571429e-01
 1.142857e+00
 1.714286e+00
 1.857143e+00
 1.571429e+00
 2.000000e+00
 2.285714e+00
 2.714286e+00
 3.428571e+00
 3.000000e+00
 2.285714e+00
 1.428571e+00
 4.285714e-01
 0
 5.714286e-01
 7.142857e-01
 1.428571e-01
 -4.285714e-01
 2.857143e-01
 1.857143e+00
 3.714286e+00
 4.142857e+00
 3.571429e+00
 3.571429e+00
 4.571429e+00
 5.714286e+00
 5.285714e+00
 3.285714e+00
 1.714286e+00
 8.571429e-01
 8.571429e-01
 1.142857e+00
 8.571429e-01
 4.285714e-01
 2.857143e-01
 7.142857e-01
 1
 1.285714e+00
 1.000000e+00
 0
 -8.571429e-01
 -1.285714e+00
 -1.714286e+00
 -5.714286e-01
 2.857143e-01
 1
 2.428571e+00
 4.857143e+00
 7.571429e+00
 9.285714e+00
 9.142857e+00
 6.428571e+00
 3.142857e+00
 -7.142857e-01
 -5.428571e+00
 -10
 -1.228571e+01
 -1.214286e+01
 -7.428571e+00
 -1.428571e+00
 3.857143e+00
 8.000000e+00
 1.142857e+01
 1.257143e+01
 1.071429e+01
 6.714286e+00
 1.000000e+00
 -3
 -3.571429e+00
 -3.000000e+00
 -1.857143e+00
 -7.142857e-01
 2.857143e-01
 1.571429e+00
 2
 5.714286e-01
 -2.142857e+00
 -3.714286e+00
 -4.000000e+00
 -2.857143e+00
 -1.142857e+00
 8.571429e-01
 2.857143e+00
 5.142857e+00
 6.571429e+00
 7.428571e+00
 7.428571e+00
 6.714286e+00
 5.857143e+00
 4.571429e+00
 3.000000e+00
 1.571429e+00
 7.142857e-01
 -7.142857e-01
 -1.714286e+00
 -2.142857e+00
 -2.142857e+00
 -1.142857e+00
 4.285714e-01
 1.571429e+00
 2.428571e+00
 3.571429e+00
 4.428571e+00
 5.285714e+00
 6.428571e+00
 6.714286e+00
 6.142857e+00
 5.571429e+00
 5.428571e+00
 6.428571e+00
 8.428571e+00
 1.042857e+01
 1.271429e+01
 1.600000e+01
 1.985714e+01
 2.371429e+01
 2.557143e+01
 2.528571e+01
 2.271429e+01
 1.885714e+01
 1.371429e+01
 7.857143e+00
 1.714286e+00
 -3.714286e+00
 -7.714286e+00
 -10
 -1.085714e+01
 -9.857143e+00
 -8.428571e+00
 -7.285714e+00
 -6
 -5.142857e+00
 -4.714286e+00
 -4.714286e+00
 -6.000000e+00
 -8.428571e+00
 -1.085714e+01
 -1.257143e+01
 -1.442857e+01
 -1.628571e+01
 -1.742857e+01
 -1.857143e+01
 -1.728571e+01
 -1.528571e+01
 -1.328571e+01
 -1.128571e+01
 -8.428571e+00
 -6.428571e+00
 -4.285714e+00
 -2.857143e+00
 -2
 -1.000000e+00
 5.714286e-01
 7.142857e-01
 0
 -8.571429e-01
 -2.428571e+00
 -4
 -4.714286e+00
 -1.571429e+00
 8.285714e+00
 2.857143e+01
 6.085714e+01
 106
 1.594286e+02
 2.117143e+02
 2.507143e+02
 2.682857e+02
 2.595714e+02
 223
 1.594286e+02
 7.471429e+01
 -1.928571e+01
 -1.065714e+02
 -1.722857e+02
 -211
 -2.231429e+02
 -2.140000e+02
 -1.891429e+02
 -1.555714e+02
 -1.192857e+02
 -8.728571e+01
 -65
 -5.157143e+01
 -45
 -4.057143e+01
 -3.571429e+01
 -2.957143e+01
 -2.457143e+01
 -1.971429e+01
 -1.542857e+01
 -1.200000e+01
 -9.142857e+00
 -6
 -4
 -3.285714e+00
 -3.285714e+00
 -3.714286e+00
 -3.428571e+00
 -2.428571e+00
 -1.571429e+00
 -1.571429e+00
 -1.285714e+00
 -2.857143e-01
 5.714286e-01
 1.857143e+00
 2.714286e+00
 3
 2.857143e+00
 2.571429e+00
 2.142857e+00
 2
 2.571429e+00
 2.285714e+00
 1.571429e+00
 7.142857e-01
 5.714286e-01
 1.142857e+00
 1.714286e+00
 7.142857e-01
 -7.142857e-01
 -1.714286e+00
 -1.571429e+00
 -1.142857e+00
 -7.142857e-01
 -1.285714e+00
 -1.142857e+00
 1.428571e-01
 1.857143e+00
 3.142857e+00
 3.857143e+00
 3.857143e+00
 3.857143e+00
 3.714286e+00
 3.428571e+00
 3.142857e+00
 3.285714e+00
 3.142857e+00
 2.857143e+00
 3.428571e+00
 4.285714e+00
 6
 7.285714e+00
 8.142857e+00
 8.714286e+00
 9.571429e+00
 1.028571e+01
 1.171429e+01
 1.257143e+01
 1.285714e+01
 1.285714e+01
 1.314286e+01
 1.342857e+01
 1.471429e+01
 1.571429e+01
 1.557143e+01
 1.542857e+01
 1.557143e+01
 1.628571e+01
 1.771429e+01
 1.857143e+01
 1.857143e+01
 1.828571e+01
 1.814286e+01
 1.857143e+01
 1.871429e+01
 1.785714e+01
 1.614286e+01
 1.414286e+01
 1.285714e+01
 1.228571e+01
 1.100000e+01
 10
 8.285714e+00
 6.857143e+00
 5.571429e+00
 4.285714e+00
 2.142857e+00
 -1.428571e-01
 -2.571429e+00
 -5.428571e+00
 -8
 -1.085714e+01
 -1.357143e+01
 -1.557143e+01
 -1.714286e+01
 -1.900000e+01
 -20
 -2.114286e+01
 -2.128571e+01
 -2.042857e+01
 -1.971429e+01
 -1.914286e+01
 -1.857143e+01
 -18
 -1.671429e+01
 -1.514286e+01
 -1.385714e+01
 -1.242857e+01
 -1.128571e+01
 -1.000000e+01
 -8.000000e+00
 -5.428571e+00
 -3.857143e+00
 -3.571429e+00
 -4.142857e+00
 -4.857143e+00
 -4.571429e+00
 -4.142857e+00
 -5.142857e+00
 -5.857143e+00
 -5.714286e+00
 -4.428571e+00
 -2.142857e+00
 -2.857143e-01
 4.285714e-01
 8.571429e-01
 1.428571e+00
 1.571429e+00
 1.428571e+00
 1.428571e+00
 5.714286e-01
 1.428571e-01
 4.285714e-01
 5.714286e-01
 1.571429e+00
 2.285714e+00
 2.428571e+00
 2.857143e+00
 3.428571e+00
 3.285714e+00
 2.857143e+00
 2.571429e+00
 2.000000e+00
 1.714286e+00
 1.571429e+00
 5.714286e-01
 4.285714e-01
 1.285714e+00
 2.000000e+00
 2.714286e+00
 3.142857e+00
 2.857143e+00
 2.857143e+00
 3.142857e+00
 2.857143e+00
 2.142857e+00
 7.142857e-01
 -7.142857e-01
 -1.142857e+00
 0
 7.142857e-01
 7.142857e-01
 1.428571e-01
 0
 1.000000e+00
 2.285714e+00
 2.000000e+00
 7.142857e-01
 -2.857143e-01
 -7.142857e-01
 1.428571e-01
 7.142857e-01
 1.428571e-01
 -1.000000e+00
 -1.428571e+00
 -1.428571e+00
 -8.571429e-01
 -4.285714e-01
 -1.000000e+00
 -1.571429e+00
 -1.142857e+00
 -2.857143e-01
 1.285714e+00
 2.142857e+00
 2.285714e+00
 1.857143e+00
 1.571429e+00
 1.428571e+00
 1.428571e+00
 8.571429e-01
 -1.428571e-01
 -8.571429e-01
 -1.000000e+00
 -5.714286e-01
 2.857143e-01
 2.857143e-01
 0
 0
 -2.857143e-01
 -4.285714e-01
 -7.142857e-01
 -1
 -1.142857e+00
 -1.142857e+00
 -1
 -1.142857e+00
 -8.571429e-01
 -2.857143e-01
 0
 2.857143e-01
 -1.428571e-01
 -2.857143e-01
 0
 5.714286e-01
 8.571429e-01
 5.714286e-01
 -2.857143e-01
 -2.857143e-01
 1.428571e-01
 1.285714e+00
 2
 2.428571e+00
 2.571429e+00
 3.142857e+00
 4.714286e+00
 5.857143e+00
 6.428571e+00
 5.714286e+00
 4.428571e+00
 3.857143e+00
 4.428571e+00
 4.857143e+00
 5.571429e+00
 7
 9.714286e+00
 1.342857e+01
 17
 1.985714e+01
 2.114286e+01
 2.128571e+01
 1.928571e+01
 1.514286e+01
 9.571429e+00
 4.285714e+00
 -5.714286e-01
 -5.285714e+00
 -9.714286e+00
 -1.285714e+01
 -1.357143e+01
 -1.214286e+01
 -1.071429e+01
 -1.057143e+01
 -1.114286e+01
 -1.142857e+01
 -1.114286e+01
 -1.157143e+01
 -1.328571e+01
 -1.614286e+01
 -1.785714e+01
 -1.785714e+01
 -1.685714e+01
 -1.585714e+01
 -1.471429e+01
 -1.271429e+01
 -9.571429e+00
 -6.857143e+00
 -4.571429e+00
 -2.571429e+00
 -8.571429e-01
 1.428571e-01
 1.428571e-01
 -4.285714e-01
 -1.142857e+00
 -8.571429e-01
 -1.285714e+00
 -2.428571e+00
 -3.285714e+00
 -3.428571e+00
 -2.857143e+00
 -2.285714e+00
 -2.000000e+00
 1.571429e+00
 1.200000e+01
 3.142857e+01
 6.171429e+01
 1.028571e+02
 1.512857e+02
 1.985714e+02
 2.342857e+02
 2.498571e+02
 2.411429e+02
 2.052857e+02
 144
 6.371429e+01
 -2.457143e+01
 -1.054286e+02
 -1.661429e+02
 -2.015714e+02
 -2.117143e+02
 -201
 -1.758571e+02
 -1.418571e+02
 -1.060000e+02
 -7.528571e+01
 -5.314286e+01
 -4.014286e+01
 -3.342857e+01
 -2.828571e+01
 -2.285714e+01
 -1.942857e+01
 -1.885714e+01
 -2.028571e+01
 -2.242857e+01
 -2.442857e+01
 -27
 -3.014286e+01
 -32
 -3.071429e+01
 -2.671429e+01
 -2.071429e+01
 -1.428571e+01
 -7.714286e+00
 -1.857143e+00
 3.142857e+00
 6.571429e+00
 8.285714e+00
 8.857143e+00
 8.428571e+00
 7.571429e+00
 6.285714e+00
 4.857143e+00
 3.571429e+00
 3.000000e+00
 2.428571e+00
 1.571429e+00
 5.714286e-01
 -1.428571e-01
 2.857143e-01
 1.428571e+00
 1.714286e+00
 1.000000e+00
 2.857143e-01
 -1.428571e-01
 -4.285714e-01
 -8.571429e-01
 -2.000000e+00
 -3.428571e+00
 -3.857143e+00
 -3.714286e+00
 -3.714286e+00
 -3.000000e+00
 -1.714286e+00
 -2.857143e-01
 8.571429e-01
 1.571429e+00
 1.714286e+00
 2.428571e+00
 3.142857e+00
 2.571429e+00
 1.285714e+00
 4.285714e-01
 -1.428571e-01
 8.571429e-01
 1.714286e+00
 1.714286e+00
 1.857143e+00
 2.285714e+00
 3.428571e+00
 5.285714e+00
 6.571429e+00
 6.714286e+00
 7.142857e+00
 7.571429e+00
 9.142857e+00
 1.100000e+01
 1.185714e+01
 1.114286e+01
 1.071429e+01
 1.071429e+01
 1.100000e+01
 1.157143e+01
 1.142857e+01
 1.157143e+01
 1.328571e+01
 1.557143e+01
 1.742857e+01
 20
 2.214286e+01
 2.300000e+01
 2.257143e+01
 2.071429e+01
 1.742857e+01
 1.471429e+01
 1.242857e+01
 8.857143e+00
 5.428571e+00
 3.285714e+00
 2.142857e+00
 2.857143e+00
 3.857143e+00
 3.571429e+00
 2.714286e+00
 2.142857e+00
 1.714286e+00
 1.285714e+00
 -5.714286e-01
 -4.285714e+00
 -9.285714e+00
 -1.442857e+01
 -1.814286e+01
 -2.128571e+01
 -2.428571e+01
 -2.728571e+01
 -2.842857e+01
 -2.728571e+01
 -2.357143e+01
 -1.957143e+01
 -1.671429e+01
 -1.457143e+01
 -1.185714e+01
 -8.857143e+00
 -6.857143e+00
 -6.000000e+00
 -5.857143e+00
 -5.142857e+00
 -4.142857e+00
 -3.285714e+00
 -3.285714e+00
 -3.000000e+00
 -2.714286e+00
 -2.857143e+00
 -3.857143e+00
 -4.571429e+00
 -4.857143e+00
 -4.857143e+00
 -4.428571e+00
 -4.285714e+00
 -3.857143e+00
 -2.857143e+00
 -2.142857e+00
 -1.142857e+00
 2.857143e-01
 1.428571e+00
 2.000000e+00
 1.571429e+00
 1.571429e+00
 1.857143e+00
 2.714286e+00
 2.428571e+00
 1.428571e+00
 2.857143e-01
 -1.428571e-01
 2.857143e-01
 8.571429e-01
 8.571429e-01
 8.571429e-01
 8.571429e-01
 1.428571e+00
 2.571429e+00
 3.428571e+00
 3.571429e+00
 2.857143e+00
 2.428571e+00
 2.428571e+00
 3.285714e+00
 4.000000e+00
 4.142857e+00
 4.142857e+00
 4.000000e+00
 3.571429e+00
 3.285714e+00
 2.571429e+00
 1.571429e+00
 5.714286e-01
 -1.428571e-01
 -1.428571e-01
 7.142857e-01
 1.714286e+00
 2.285714e+00
 2.142857e+00
 1.857143e+00
 1.857143e+00
 1.857143e+00
 1.571429e+00
 5.714286e-01
 -4.285714e-01
 -1.142857e+00
 -1.428571e+00
 -1.285714e+00
 -1.142857e+00
 -1.142857e+00
 -1.428571e+00
 -1.714286e+00
 -1.142857e+00
 -8.571429e-01
 -4.285714e-01
 -1.285714e+00
 -2.857143e+00
 -4.428571e+00
 -5.000000e+00
 -4.428571e+00
 -3.714286e+00
 -2.857143e+00
 -1.142857e+00
 1.714286e+00
 5.571429e+00
 1.085714e+01
 1.571429e+01
 1.871429e+01
 1.885714e+01
 1.671429e+01
 1.257143e+01
 7.000000e+00
 -1.285714e+00
 -1.157143e+01
 -2.128571e+01
 -2.771429e+01
 -2.942857e+01
 -2.685714e+01
 -2.100000e+01
 -1.257143e+01
 -2.857143e+00
 5.857143e+00
 1.128571e+01
 1.371429e+01
 1.385714e+01
 1.157143e+01
 6.285714e+00
 -4.285714e-01
 -5.428571e+00
 -6.142857e+00
 -4.142857e+00
 -2.285714e+00
 -7.142857e-01
 1.428571e+00
 4.857143e+00
 8.714286e+00
 1.057143e+01
 9.571429e+00
 7.571429e+00
 6.142857e+00
 5.571429e+00
 5.428571e+00
 6.142857e+00
 7.714286e+00
 1.114286e+01
 1.485714e+01
 1.842857e+01
 2.157143e+01
 2.342857e+01
 2.342857e+01
 21
 1.600000e+01
 1.014286e+01
 5.000000e+00
 4.285714e-01
 -3.285714e+00
 -6.571429e+00
 -8.857143e+00
 -9.857143e+00
 -9.428571e+00
 -9.428571e+00
 -1.014286e+01
 -12
 -1.457143e+01
 -1.671429e+01
 -1.771429e+01
 -18
 -18
 -1.757143e+01
 -1.628571e+01
 -1.371429e+01
 -1.014286e+01
 -6.857143e+00
 -4.714286e+00
 -3.428571e+00
 -2.857143e+00
 -2.571429e+00
 -2.428571e+00
 -2
 -2
 -2.142857e+00
 -2.428571e+00
 -2.142857e+00
 -1.142857e+00
 -1.428571e-01
 -7.142857e-01
 -2.428571e+00
 -5
 -6.714286e+00
 -5.857143e+00
 1.428571e-01
 1.314286e+01
 3.428571e+01
 6.557143e+01
 1.077143e+02
 1.572857e+02
 2.042857e+02
 2.372857e+02
 2.482857e+02
 2.345714e+02
 1.958571e+02
 1.345714e+02
 5.585714e+01
 -3.085714e+01
 -1.108571e+02
 -1.702857e+02
 -2.044286e+02
 -2.137143e+02
 -2.027143e+02
 -1.785714e+02
 -1.467143e+02
 -1.122857e+02
 -8.228571e+01
 -6.014286e+01
 -4.614286e+01
 -3.914286e+01
 -3.528571e+01
 -3.128571e+01
 -2.742857e+01
 -24
 -2.057143e+01
 -1.771429e+01
 -1.471429e+01
 -1.157143e+01
 -8
 -4.000000e+00
 -8.571429e-01
 5.714286e-01
 1.285714e+00
 1.142857e+00
 2.857143e-01
 -8.571429e-01
 -2.142857e+00
 -3.714286e+00
 -4.142857e+00
 -3.428571e+00
 -2.142857e+00
 1.428571e-01
 2.428571e+00
 3.285714e+00
 3.428571e+00
 3.285714e+00
 2.285714e+00
 1.428571e+00
 1.428571e-01
 -1.857143e+00
 -3.285714e+00
 -4
 -4.142857e+00
 -3.571429e+00
 -2.428571e+00
 -1.428571e+00
 -2.857143e-01
 1
 1.857143e+00
 3.142857e+00
 4.285714e+00
 5.142857e+00
 4.857143e+00
 4.285714e+00
 3.571429e+00
 3.714286e+00
 3.857143e+00
 3.714286e+00
 2.857143e+00
 2.000000e+00
 2.285714e+00
 3
 3.857143e+00
 3.857143e+00
 3.571429e+00
 3.285714e+00
 3.857143e+00
 4.571429e+00
 5.285714e+00
 5.714286e+00
 6.285714e+00
 6.714286e+00
 7.285714e+00
 8.428571e+00
 9.714286e+00
 1.071429e+01
 11
 1.100000e+01
 11
 1.171429e+01
 1.242857e+01
 1.214286e+01
 1.114286e+01
 1.028571e+01
 9.714286e+00
 10
 1.028571e+01
 1.014286e+01
 1.042857e+01
 1.128571e+01
 1.242857e+01
 1.428571e+01
 1.628571e+01
 1.714286e+01
 1.685714e+01
 1.585714e+01
 1.442857e+01
 1.414286e+01
 1.385714e+01
 1.257143e+01
 1.157143e+01
 1.171429e+01
 1.300000e+01
 1.500000e+01
 1.528571e+01
 1.314286e+01
 1.028571e+01
 6.714286e+00
 2.714286e+00
 -1.857143e+00
 -6.428571e+00
 -1.014286e+01
 -1.171429e+01
 -1.257143e+01
 -1.328571e+01
 -1.342857e+01
 -1.371429e+01
 -1.428571e+01
 -1.557143e+01
 -1.771429e+01
 -1.971429e+01
 -1.985714e+01
 -1.914286e+01
 -1.785714e+01
 -1.671429e+01
 -1.514286e+01
 -1.314286e+01
 -1.000000e+01
 -7.428571e+00
 -6.571429e+00
 -6
 -5.142857e+00
 -4.142857e+00
 -2.714286e+00
 -1.571429e+00
 -2.000000e+00
 -2.142857e+00
 -2.142857e+00
 -2.142857e+00
 -2.142857e+00
 -1.714286e+00
 -2.000000e+00
 -1.571429e+00
 -1.000000e+00
 -5.714286e-01
 2.857143e-01
 1.142857e+00
 1.428571e+00
 7.142857e-01
 1.428571e-01
 -1.428571e-01
 4.285714e-01
 1.142857e+00
 1.714286e+00
 1.571429e+00
 2.142857e+00
 2.857143e+00
 4.285714e+00
 4.857143e+00
 4.571429e+00
 3.428571e+00
 2.428571e+00
 2.428571e+00
 2.428571e+00
 2.857143e+00
 2.857143e+00
 2.571429e+00
 2.285714e+00
 2.571429e+00
 2.142857e+00
 1.428571e+00
 -2.220446e-16
 -1.857143e+00
 -3.571429e+00
 -3.571429e+00
 -2.857143e+00
 -1.428571e+00
 -2.857143e-01
 7.142857e-01
 1.285714e+00
 3.000000e+00
 4.285714e+00
 4.285714e+00
 3.285714e+00
 2.571429e+00
 2.142857e+00
 1.714286e+00
 1.428571e+00
 5.714286e-01
 -5.714286e-01
 -1.000000e+00
 -1.285714e+00
 -2.428571e+00
 -1.714286e+00
 -7.142857e-01
 1.428571e-01
 5.714286e-01
 5.714286e-01
 1.428571e-01
 4.285714e-01
 8.571429e-01
 -5.714286e-01
 -2.142857e+00
 -2.714286e+00
 -2.571429e+00
 -1.428571e+00
 -4.285714e-01
 -1.428571e-01
 2.857143e-01
 1.142857e+00
 2
 2.571429e+00
 3.142857e+00
 2.857143e+00
 2.000000e+00
 1.285714e+00
 2.857143e-01
 -2.857143e-01
 -7.142857e-01
 -1.571429e+00
 -2.285714e+00
 -2.285714e+00
 -1.714286e+00
 -2.857143e-01
 8.571429e-01
 1.571429e+00
 1.285714e+00
 5.714286e-01
 -5.714286e-01
 -1.428571e+00
 -2.571429e+00
 -4
 -5.571429e+00
 -6.285714e+00
 -5.428571e+00
 -3.571429e+00
 -1.428571e+00
 1.428571e-01
 1.428571e+00
 2.428571e+00
 3.285714e+00
 4.000000e+00
 3.857143e+00
 3.142857e+00
 2.428571e+00
 2.000000e+00
 2
 2.571429e+00
 3.285714e+00
 3.571429e+00
 3.428571e+00
 3.000000e+00
 2.714286e+00
 3.285714e+00
 4.000000e+00
 3.428571e+00
 2.857143e+00
 2.285714e+00
 3
 5.142857e+00
 7.285714e+00
 9.142857e+00
 1.214286e+01
 1.642857e+01
 2.071429e+01
 2.442857e+01
 2.585714e+01
 2.557143e+01
 2.371429e+01
 2.042857e+01
 1.471429e+01
 8.714286e+00
 2.571429e+00
 -2.857143e+00
 -7.571429e+00
 -1.085714e+01
 -1.328571e+01
 -1.400000e+01
 -1.357143e+01
 -1.342857e+01
 -1.314286e+01
 -1.342857e+01
 -1.371429e+01
 -1.457143e+01
 -1.528571e+01
 -1.685714e+01
 -1.828571e+01
 -1.942857e+01
 -1.971429e+01
 -1.857143e+01
 -1.614286e+01
 -1.385714e+01
 -1.142857e+01
 -8.714286e+00
 -6.428571e+00
 -3.428571e+00
 -1.428571e+00
 -7.142857e-01
 -7.142857e-01
 -5.714286e-01
 -5.714286e-01
 -1.428571e-01
 7.142857e-01
 4.285714e-01
 1.428571e-01
 -1.428571e-01
 -1.428571e-01
 -1.428571e-01
 -5.714286e-01
 -3.285714e+00
 -6.142857e+00
 -8.000000e+00
 -6.857143e+00
 -7.142857e-01
 1.128571e+01
 2.985714e+01
 5.714286e+01
 9.414286e+01
 1.374286e+02
 1.802857e+02
 212
 2.251429e+02
 2.172857e+02
 188
 1.367143e+02
 6.757143e+01
 -1.042857e+01
 -8.557143e+01
 -1.445714e+02
 -1.817143e+02
 -1.972857e+02
 -1.932857e+02
 -1.725714e+02
 -1.427143e+02
 -1.105714e+02
 -82
 -6.100000e+01
 -4.828571e+01
 -4.085714e+01
 -38
 -3.685714e+01
 -3.442857e+01
 -3.157143e+01
 -2.757143e+01
 -2.228571e+01
 -1.671429e+01
 -1.242857e+01
 -9.000000e+00
 -6.571429e+00
 -4.000000e+00
 -1.571429e+00
 -2.857143e-01
 -7.142857e-01
 -1.571429e+00
 -2.000000e+00
 -1.571429e+00
 -1.142857e+00
 -1.428571e+00
 -1.285714e+00
 -7.142857e-01
 4.285714e-01
 1.571429e+00
 2.857143e+00
 3.571429e+00
 3.571429e+00
 3
 2.000000e+00
 1.285714e+00
 8.571429e-01
 4.285714e-01
 -5.714286e-01
 -8.571429e-01
 -5.714286e-01
 4.285714e-01
 1.714286e+00
 2.571429e+00
 2.428571e+00
 2.714286e+00
 2.714286e+00
 3.000000e+00
 3.714286e+00
 4
 3.857143e+00
 3.285714e+00
 3
 3
 3.142857e+00
 2.142857e+00
 7.142857e-01
 -8.571429e-01
 -1.857143e+00
 -1.857143e+00
 -1.571429e+00
 -1.428571e+00
 -1.142857e+00
 -8.571429e-01
 -1.110223e-16
 1.571429e+00
 2.857143e+00
 3.714286e+00
 4.142857e+00
 4.142857e+00
 4.714286e+00
 5.714286e+00
 6.142857e+00
 6
 5.857143e+00
 5.571429e+00
 5.714286e+00
 6
 6.142857e+00
 6.714286e+00
 7.428571e+00
 8.142857e+00
 8.857143e+00
 1.028571e+01
 12
 1.357143e+01
 1.400000e+01
 1.385714e+01
 1.342857e+01
 1.285714e+01
 1.242857e+01
 1.142857e+01
 9.571429e+00
 8.714286e+00
 8.571429e+00
 9
 1.028571e+01
 1.142857e+01
 1.185714e+01
 1.228571e+01
 1.285714e+01
 1.271429e+01
 1.300000e+01
 1.271429e+01
 1.128571e+01
 1.000000e+01
 9.142857e+00
 8.285714e+00
 7.142857e+00
 5.285714e+00
 2.714286e+00
 -5.714286e-01
 -4
 -7.285714e+00
 -1.071429e+01
 -1.342857e+01
 -1.557143e+01
 -1.714286e+01
 -18
 -1.671429e+01
 -1.485714e+01
 -1.342857e+01
 -1.242857e+01
 -1.242857e+01
 -1.257143e+01
 -1.171429e+01
 -1.185714e+01
 -1.271429e+01
 -1.242857e+01
 -1.157143e+01
 -1.000000e+01
 -7.857143e+00
 -5.714286e+00
 -4.428571e+00
 -2.285714e+00
 -1.857143e+00
 -2.857143e+00
 -3.285714e+00
 -3.857143e+00
 -4.857143e+00
 -5.285714e+00
 -6.285714e+00
 -7.000000e+00
 -5.714286e+00
 -3.571429e+00
 -1.428571e+00
 4.285714e-01
 2.000000e+00
 3.000000e+00
 4.571429e+00
 5.714286e+00
 5.571429e+00
 4.142857e+00
 2
 4.285714e-01
 1.110223e-16
 4.285714e-01
 4.285714e-01
 -2.857143e-01
 -5.714286e-01
 1.428571e-01
 1.142857e+00
 2
 1.285714e+00
 -1.428571e-01
 -1.285714e+00
 -1.571429e+00
 -1.142857e+00
 -1.142857e+00
 -1.285714e+00
 -1.428571e+00
 -4.285714e-01
 7.142857e-01
 2.428571e+00
 3.571429e+00
 4.142857e+00
 4.428571e+00
 4.571429e+00
 4
 3.428571e+00
 2.714286e+00
 2.000000e+00
 1.571429e+00
 8.571429e-01
 5.714286e-01
 1.285714e+00
 2.714286e+00
 3.428571e+00
 3
 2.000000e+00
 1.428571e+00
 2.142857e+00
 2.571429e+00
 1.857143e+00
 4.285714e-01
 -1.428571e-01
 1.428571e-01
 -1.110223e-16
 -1.285714e+00
 -3.142857e+00
 -4.714286e+00
 -5.285714e+00
 -5.142857e+00
 -4.428571e+00
 -2.714286e+00
 -5.714286e-01
 1.714286e+00
 3.142857e+00
 4.428571e+00
 5
 5.285714e+00
 3.857143e+00
 1.714286e+00
 -5.714286e-01
 -1.714286e+00
 -2.571429e+00
 -3.000000e+00
 -4.142857e+00
 -4.428571e+00
 -3.857143e+00
 -2.857143e+00
 -2.285714e+00
 -1.571429e+00
 -1.428571e+00
 -8.571429e-01
 -4.285714e-01
 -5.714286e-01
 -8.571429e-01
 -4.285714e-01
 -1.428571e-01
 -5.551115e-17
 2.857143e-01
 -1.428571e-01
 2.857143e-01
 5.714286e-01
 4.285714e-01
 -1.428571e-01
 -1.428571e-01
 -7.142857e-01
 -2.857143e-01
 2.857143e-01
 1.000000e+00
 1.857143e+00
 2
 1.285714e+00
 1.714286e+00
 3.142857e+00
 3.857143e+00
 4.285714e+00
 4.000000e+00
 3.714286e+00
 4.857143e+00
 6.285714e+00
 5.857143e+00
 4.428571e+00
 2.857143e+00
 1.714286e+00
 2.285714e+00
 4.428571e+00
 5.714286e+00
 7.428571e+00
 1.085714e+01
 1.528571e+01
 1.985714e+01
 2.285714e+01
 2.242857e+01
 1.942857e+01
 1.600000e+01
 1.085714e+01
 4.428571e+00
 -2.571429e+00
 -8.285714e+00
 -1.200000e+01
 -1.328571e+01
 -1.357143e+01
 -1.257143e+01
 -1.085714e+01
 -9
 -7.857143e+00
 -8.285714e+00
 -9.428571e+00
 -1.114286e+01
 -1.285714e+01
 -1.457143e+01
 -1.514286e+01
 -1.557143e+01
 -1.571429e+01
 -1.471429e+01
 -1.242857e+01
 -9.428571e+00
 -7.142857e+00
 -6
 -5.428571e+00
 -4.285714e+00
 -3.571429e+00
 -3.571429e+00
 -4.714286e+00
 -5.714286e+00
 -6
 -5.571429e+00
 -4.285714e+00
 -2.285714e+00
 -1.428571e-01
 1.142857e+00
 1.428571e+00
 1.142857e+00
 7.142857e-01
 -4.285714e-01
 -3.428571e+00
 -6.571429e+00
 -5.857143e+00
 2.571429e+00
 1.914286e+01
 4.385714e+01
 7.785714e+01
 1.208571e+02
 1.677143e+02
 2.082857e+02
 233
 2.361429e+02
 2.167143e+02
 1.722857e+02
 1.055714e+02
 2.528571e+01
 -5.628571e+01
 -1.271429e+02
 -1.787143e+02
 -2.085714e+02
 -2.154286e+02
 -2.010000e+02
 -1.727143e+02
 -1.395714e+02
 -1.074286e+02
 -7.971429e+01
 -5.842857e+01
 -4.357143e+01
 -3.542857e+01
 -3.142857e+01
 -2.700000e+01
 -2.185714e+01
 -1.742857e+01
 -1.371429e+01
 -1.085714e+01
 -9
 -7.285714e+00
 -5.571429e+00
 -4.714286e+00
 -3.714286e+00
 -2.000000e+00
 -2.857143e-01
 2.000000e+00
 4.142857e+00
 5.000000e+00
 5.285714e+00
 4.714286e+00
 3
 4.285714e-01
 -2.142857e+00
 -4.714286e+00
 -6.285714e+00
 -6.571429e+00
 -5.428571e+00
 -3.857143e+00
 -1.714286e+00
 4.285714e-01
 2.142857e+00
 4.000000e+00
 5.142857e+00
 4.428571e+00
 2.285714e+00
 4.285714e-01
 -1.000000e+00
 -1.714286e+00
 -2.571429e+00
 -3.714286e+00
 -4.285714e+00
 -3.142857e+00
 -1.285714e+00
 2.857143e-01
 1.714286e+00
 2.571429e+00
 3.142857e+00
 3.428571e+00
 4.285714e+00
 4.142857e+00
 4.142857e+00
 4
 3.714286e+00
 3.857143e+00
 4.857143e+00
 5.714286e+00
 6
 6.000000e+00
 5.571429e+00
 5.428571e+00
 5.857143e+00
 6.428571e+00
 6.571429e+00
 7.142857e+00
 7.000000e+00
 7.285714e+00
 8.000000e+00
 8.857143e+00
 9
 8.714286e+00
 8.285714e+00
 8.428571e+00
 9.714286e+00
 1.085714e+01
 1.157143e+01
 1.228571e+01
 1.285714e+01
 1.328571e+01
 1.428571e+01
 1.442857e+01
 1.428571e+01
 15
 1.471429e+01
 14
 1.371429e+01
 1.328571e+01
 13
 1.271429e+01
 1.114286e+01
 9.285714e+00
 8.714286e+00
 8.714286e+00
 8.714286e+00
 8.142857e+00
 6.857143e+00
 5.571429e+00
 5.428571e+00
 5.428571e+00
 4.428571e+00
 2.428571e+00
 -2.857143e-01
 -2.714286e+00
 -4.857143e+00
 -6.428571e+00
 -8.428571e+00
 -1.071429e+01
 -1.285714e+01
 -1.400000e+01
 -1.428571e+01
 -1.371429e+01
 -1.357143e+01
 -1.400000e+01
 -1.428571e+01
 -1.428571e+01
 -1.342857e+01
 -1.271429e+01
 -12
 -1.157143e+01
 -1.128571e+01
 -1.071429e+01
 -9.571429e+00
 -8.428571e+00
 -7.142857e+00
 -6.857143e+00
 -6.428571e+00
 -5.714286e+00
 -4.142857e+00
 -2.285714e+00
 -1.714286e+00
 -2
 -2.428571e+00
 -2.142857e+00
 -1.857143e+00
 -1.428571e+00
 -1.428571e+00
 -1.571429e+00
 -1.428571e+00
 -1
 -1.142857e+00
 -5.714286e-01
 -2.857143e-01
 -4.285714e-01
 -4.285714e-01
 -2.857143e-01
 8.571429e-01
 2.571429e+00
 4.142857e+00
 4.285714e+00
 4
 3.428571e+00
 3.571429e+00
 3.714286e+00
 3.571429e+00
 2.428571e+00
 1.714286e+00
 1.571429e+00
 2.571429e+00
 3.571429e+00
 3.571429e+00
 3
 1.857143e+00
 1.714286e+00
 1.714286e+00
 2.142857e+00
 1.571429e+00
 1.142857e+00
 7.142857e-01
 1.142857e+00
 1.571429e+00
 1.857143e+00
 1.428571e+00
 1
 4.285714e-01
 -1.428571e-01
 -1.428571e-01
 -4.285714e-01
 -1.428571e-01
 -1.428571e-01
 5.551115e-17
 -4.285714e-01
 2.857143e-01
 8.571429e-01
 1.428571e+00
 1.285714e+00
 8.571429e-01
 0
 -1.428571e-01
 2.857143e-01
 -4.285714e-01
 -8.571429e-01
 -1.428571e+00
 -1.857143e+00
 -1.571429e+00
 -5.714286e-01
 -8.571429e-01
 -1
 -8.571429e-01
 -1
 -7.142857e-01
 -5.551115e-17
 1.428571e-01
 -5.551115e-17
 8.571429e-01
 4.285714e-01
 5.714286e-01
 8.571429e-01
 7.142857e-01
 0
 -1
 -1.714286e+00
 -2.142857e+00
 -1.428571e+00
 -1.142857e+00
 -8.571429e-01
 -2.857143e-01
 5.714286e-01
 1.428571e+00
 2.428571e+00
 2.571429e+00
 2.285714e+00
 1.571429e+00
 4.285714e-01
 -4.285714e-01
 -8.571429e-01
 -1.142857e+00
 -2.142857e+00
 -2.428571e+00
 -2.714286e+00
 -2
 -5.714286e-01
 1.428571e-01
 2.857143e-01
 7.142857e-01
 1
 1.285714e+00
 2.142857e+00
 2
 1.285714e+00
 1
 1.142857e+00
 1.714286e+00
 3
 3.142857e+00
 2.857143e+00
 2.571429e+00
 2.571429e+00
 2.428571e+00
 2.571429e+00
 2.428571e+00
 2.000000e+00
 2.571429e+00
 3.142857e+00
 4.142857e+00
 5.857143e+00
 7.285714e+00
 8.428571e+00
 1.028571e+01
 1.285714e+01
 1.657143e+01
 2.028571e+01
 2.285714e+01
 2.328571e+01
 2.328571e+01
 2.214286e+01
 1.900000e+01
 1.414286e+01
 7.714286e+00
 1.428571e+00
 -3.571429e+00
 -7.142857e+00
 -9.857143e+00
 -1.114286e+01
 -1.157143e+01
 -11
 -1.071429e+01
 -1.042857e+01
 -1.042857e+01
 -1.085714e+01
 -1.185714e+01
 -1.328571e+01
 -1.471429e+01
 -1.557143e+01
 -1.542857e+01
 -1.485714e+01
 -1.357143e+01
 -1.157143e+01
 -9.571429e+00
 -7.857143e+00
 -6
 -4.142857e+00
 -2.714286e+00
 -2.142857e+00
 -2.857143e+00
 -3.428571e+00
 -3.428571e+00
 -2.857143e+00
 -2.285714e+00
 -2.857143e+00
 -3.857143e+00
 -4.285714e+00
 -4.285714e+00
 -4.714286e+00
 -5.857143e+00
 -7.857143e+00
 -8.714286e+00
 -5
 5.285714e+00
 2.228571e+01
 48
 8.342857e+01
 1.274286e+02
 1.737143e+02
 2.110000e+02
 2.300000e+02
 2.281429e+02
 2.034286e+02
 1.551429e+02
 8.685714e+01
 7.142857e+00
 -7.057143e+01
 -1.328571e+02
 -1.732857e+02
 -1.922857e+02
 -1.902857e+02
 -1.717143e+02
 -1.432857e+02
 -1.115714e+02
 -8.385714e+01
 -6.357143e+01
 -5.014286e+01
 -4.271429e+01
 -3.942857e+01
 -3.642857e+01
 -3.257143e+01
 -28
 -2.314286e+01
 -1.800000e+01
 -1.342857e+01
 -9.571429e+00
 -7.000000e+00
 -6
 -5
 -4.142857e+00
 -3.285714e+00
 -3.142857e+00
 -3.142857e+00
 -3.000000e+00
 -1.714286e+00
 1.428571e-01
 1.571429e+00
 1.714286e+00
 1.714286e+00
 2.000000e+00
 2
 2.142857e+00
 7.142857e-01
 -1.428571e-01
 -5.714286e-01
 -1.428571e-01
 -1.428571e-01
 5.714286e-01
 1.142857e+00
 1.857143e+00
 2
 1.285714e+00
 1.428571e-01
 -8.571429e-01
 -1.142857e+00
 -2
 -1.857143e+00
 -1.714286e+00
 -4.285714e-01
 1
 3
 4.142857e+00
 5.142857e+00
 4.857143e+00
 3.857143e+00
 3
 2.714286e+00
 2.285714e+00
 1.285714e+00
 5.714286e-01
 4.285714e-01
 2.000000e+00
 4.000000e+00
 5
 5.428571e+00
 5.714286e+00
 6
 7
 7.428571e+00
 7.285714e+00
 7.285714e+00
 7.571429e+00
 7.857143e+00
 9.285714e+00
 1.085714e+01
 12
 13
 1.328571e+01
 1.314286e+01
 1.385714e+01
 15
 1.514286e+01
 15
 1.485714e+01
 1.542857e+01
 1.657143e+01
 18
 1.785714e+01
 17
 1.614286e+01
 1.457143e+01
 1.257143e+01
 1.100000e+01
 9.285714e+00
 7.571429e+00
 6.857143e+00
 6.142857e+00
 6
 7.285714e+00
 7.857143e+00
 6.428571e+00
 4.428571e+00
 1.428571e+00
 -1.285714e+00
 -3.571429e+00
 -6.714286e+00
 -1.071429e+01
 -1.371429e+01
 -1.542857e+01
 -1.585714e+01
 -1.571429e+01
 -16
 -1.685714e+01
 -1.742857e+01
 -1.714286e+01
 -17
 -1.628571e+01
 -1.614286e+01
 -1.600000e+01
 -1.557143e+01
 -1.442857e+01
 -1.314286e+01
 -1.157143e+01
 -1.014286e+01
 -9.857143e+00
 -9.142857e+00
 -8.285714e+00
 -7.142857e+00
 -5.428571e+00
 -3.857143e+00
 -3.285714e+00
 -2.571429e+00
 -2.000000e+00
 -1.285714e+00
 -2.857143e-01
 -2.857143e-01
 -7.142857e-01
 -1.428571e+00
 -1.571429e+00
 -1.285714e+00
 -2.857143e-01
 7.142857e-01
 1.571429e+00
 1.714286e+00
 1.571429e+00
 2.428571e+00
 3.571429e+00
 4
 3.285714e+00
 1.857143e+00
 8.571429e-01
 1.571429e+00
 2.285714e+00
 2.000000e+00
 1.428571e+00
 1.285714e+00
 1.857143e+00
 3.285714e+00
 4.285714e+00
 4.428571e+00
 4.142857e+00
 3.285714e+00
 2.000000e+00
 1.285714e+00
 7.142857e-01
 -4.285714e-01
 -1.142857e+00
 -1.428571e+00
 -1.142857e+00
 4.285714e-01
 2.285714e+00
 3.285714e+00
 4.000000e+00
 3.714286e+00
 2.857143e+00
 2.571429e+00
 2.571429e+00
 1.857143e+00
 7.142857e-01
 -2.857143e-01
 -8.571429e-01
 2.857143e-01
 1.571429e+00
 1.857143e+00
 1.428571e+00
 8.571429e-01
 5.714286e-01
 7.142857e-01
 5.714286e-01
 -1.428571e-01
 -1.285714e+00
 -2.142857e+00
 -2.428571e+00
 -1.714286e+00
 -7.142857e-01
 -2.857143e-01
 -1.428571e-01
 -2.857143e-01
 2.857143e-01
 8.571429e-01
 1.142857e+00
 8.571429e-01
 1.428571e-01
 -2.857143e-01
 -5.714286e-01
 -5.714286e-01
 -5.714286e-01
 -5.714286e-01
 -5.714286e-01
 -8.571429e-01
 -1.428571e+00
 -5.714286e-01
 5.714286e-01
 1.571429e+00
 2.000000e+00
 1.857143e+00
 1.714286e+00
 2.571429e+00
 3.142857e+00
 2.428571e+00
 1.285714e+00
 -5.714286e-01
 -1.857143e+00
 -1.571429e+00
 -1.428571e+00
 -1.857143e+00
 -2
 -2.142857e+00
 -1.428571e+00
 5.551115e-17
 8.571429e-01
 4.285714e-01
 5.714286e-01
 1.428571e-01
 2.857143e-01
 4.285714e-01
 2.857143e-01
 0
 4.285714e-01
 1.428571e-01
 -1.428571e-01
 2.857143e-01
 5.714286e-01
 1.142857e+00
 1.571429e+00
 1.428571e+00
 1
 2.000000e+00
 2.857143e+00
 3.571429e+00
 3.714286e+00
 3.285714e+00
 3.428571e+00
 4.428571e+00
 5.571429e+00
 6.571429e+00
 7.857143e+00
 9.285714e+00
 1.185714e+01
 1.528571e+01
 19
 2.185714e+01
 2.328571e+01
 2.342857e+01
 2.214286e+01
 1.971429e+01
 1.557143e+01
 1.000000e+01
 3.571429e+00
 -1.857143e+00
 -5.857143e+00
 -8
 -9
 -9.571429e+00
 -9.571429e+00
 -9.571429e+00
 -1.014286e+01
 -1.128571e+01
 -1.357143e+01
 -1.614286e+01
 -18
 -19
 -1.885714e+01
 -1.714286e+01
 -1.442857e+01
 -1.114286e+01
 -7.428571e+00
 -5.142857e+00
 -4.000000e+00
 -2.857143e+00
 -2.285714e+00
 -2.571429e+00
 -2.857143e+00
 -3.857143e+00
 -3.857143e+00
 -3
 -2
 -1.285714e+00
 -7.142857e-01
 -8.571429e-01
 -2.000000e+00
 -3.142857e+00
 -5
 -6.000000e+00
 -5.571429e+00
 -1.571429e+00
 7.714286e+00
 2.585714e+01
 5.400000e+01
 9.285714e+01
 1.377143e+02
 1.807143e+02
 2.124286e+02
 2.265714e+02
 2.198571e+02
 1.901429e+02
 1.377143e+02
 67
 -1.071429e+01
 -82
 -1.347143e+02
 -1.657143e+02
 -1.761429e+02
 -1.695714e+02
 -1.505714e+02
 -1.242857e+02
 -9.685714e+01
 -7.428571e+01
 -5.985714e+01
 -5.271429e+01
 -4.985714e+01
 -4.728571e+01
 -4.314286e+01
 -3.714286e+01
 -3.114286e+01
 -2.585714e+01
 -2.100000e+01
 -1.600000e+01
 -1.142857e+01
 -8.714286e+00
 -7
 -6.428571e+00
 -6.000000e+00
 -4.857143e+00
 -4
 -3.714286e+00
 -3.428571e+00
 -3.714286e+00
 -3.571429e+00
 -3.285714e+00
 -2.428571e+00
 -2.000000e+00
 -1.428571e+00
 -1.142857e+00
 -1
 5.551115e-17
 1
 1.714286e+00
 2
 1.714286e+00
 1.571429e+00
 2.142857e+00
 2.142857e+00
 2.571429e+00
 2.428571e+00
 2.428571e+00
 1.857143e+00
 1.857143e+00
 2.000000e+00
 2.000000e+00
 1.857143e+00
 7.142857e-01
 -1.428571e-01
 -1.428571e-01
 5.714286e-01
 1.285714e+00
 1.571429e+00
 1.428571e+00
 2.142857e+00
 3.142857e+00
 4.714286e+00
 5.428571e+00
 5.142857e+00
 4.571429e+00
 4.142857e+00
 4.428571e+00
 5.142857e+00
 5.714286e+00
 5.571429e+00
 5.428571e+00
 5.714286e+00
 6.428571e+00
 7.285714e+00
 7.142857e+00
 6.000000e+00
 5.571429e+00
 5.428571e+00
 6.285714e+00
 7.714286e+00
 9
 10
 1.114286e+01
 12
 1.228571e+01
 1.257143e+01
 12
 1.028571e+01
 9
 8.285714e+00
 8.428571e+00
 10
 1.157143e+01
 1.300000e+01
 1.428571e+01
 1.585714e+01
 1.671429e+01
 1.728571e+01
 1.714286e+01
 1.600000e+01
 1.400000e+01
 1.157143e+01
 9.571429e+00
 8.714286e+00
 7.142857e+00
 5.000000e+00
 2.142857e+00
 -4.285714e-01
 -1.857143e+00
 -3.142857e+00
 -5.714286e+00
 -8.428571e+00
 -1.085714e+01
 -1.271429e+01
 -1.328571e+01
 -1.385714e+01
 -1.471429e+01
 -1.542857e+01
 -1.571429e+01
 -16
 -1.557143e+01
 -1.514286e+01
 -1.528571e+01
 -1.485714e+01
 -1.414286e+01
 -1.285714e+01
 -1.114286e+01
 -9
 -7.285714e+00
 -5.285714e+00
 -4.142857e+00
 -3.857143e+00
 -3.571429e+00
 -3.000000e+00
 -2.857143e+00
 -3.714286e+00
 -4.714286e+00
 -6.000000e+00
 -5.571429e+00
 -4.571429e+00
 -4.000000e+00
 -4.000000e+00
 -3.285714e+00
 -1.857143e+00
 5.714286e-01
 2.714286e+00
 3.428571e+00
 3.142857e+00
 2.571429e+00
 1.714286e+00
 7.142857e-01
 -7.142857e-01
 -2.571429e+00
 -4.000000e+00
 -4.285714e+00
 -3.714286e+00
 -2.142857e+00
 -4.285714e-01
 1.000000e+00
 2.000000e+00
 2.857143e+00
 3.714286e+00
 4.142857e+00
 4.428571e+00
 4.285714e+00
 4.142857e+00
 3.857143e+00
 3.285714e+00
 3.000000e+00
 2.857143e+00
 2.428571e+00
 1.857143e+00
 8.571429e-01
 2.857143e-01
 4.285714e-01
 1.285714e+00
 1.857143e+00
 1.857143e+00
 1.857143e+00
 1.571429e+00
 1.714286e+00
 1.428571e+00
 4.285714e-01
 -1.142857e+00
 -2.428571e+00
 -3.714286e+00
 -3.714286e+00
 -3.428571e+00
 -3
 -2.714286e+00
 -1.857143e+00
 -7.142857e-01
 8.571429e-01
 2.428571e+00
 2.714286e+00
 2.857143e+00
 2.428571e+00
 1.857143e+00
 1.285714e+00
 1
 -1.428571e-01
 -4.285714e-01
 -8.571429e-01
 -8.571429e-01
 -7.142857e-01
 -1.428571e-01
 -2.857143e-01
 -7.142857e-01
 -1.142857e+00
 -1.857143e+00
 -2.142857e+00
 -1.857143e+00
 -1.857143e+00
 -2.000000e+00
 -1.571429e+00
 -1.285714e+00
 -5.714286e-01
 -1.428571e-01
 1.428571e-01
 0
 1.428571e-01
 2.857143e-01
 4.285714e-01
 1.142857e+00
 1.857143e+00
 2.571429e+00
 2.428571e+00
 2.285714e+00
 1.857143e+00
 1.714286e+00
 1.571429e+00
 8.571429e-01
 -4.285714e-01
 -1.285714e+00
 -1.714286e+00
 -1.571429e+00
 -1.142857e+00
 -5.714286e-01
 -4.285714e-01
 -4.285714e-01
 1.428571e-01
 8.571429e-01
 1.857143e+00
 2
 1.285714e+00
 1.428571e-01
 -1.428571e-01
 2.857143e-01
 4.285714e-01
 1.428571e-01
 -2.857143e-01
 -2.857143e-01
 1.142857e+00
 2.857143e+00
 4.428571e+00
 5.714286e+00
 6.285714e+00
 7.000000e+00
 7.714286e+00
 8
 8.142857e+00
 7.428571e+00
 6.571429e+00
 6.571429e+00
 8.428571e+00
 1.128571e+01
 1.500000e+01
 1.757143e+01
 1.928571e+01
 2.071429e+01
 2.142857e+01
 2.042857e+01
 1.700000e+01
 1.114286e+01
 4.857143e+00
 2.857143e-01
 -3.571429e+00
 -6.571429e+00
 -9.142857e+00
 -1.100000e+01
 -1.157143e+01
 -11
 -1.085714e+01
 -1.157143e+01
 -1.300000e+01
 -1.471429e+01
 -1.614286e+01
 -1.714286e+01
 -1.785714e+01
 -1.842857e+01
 -1.771429e+01
 -1.614286e+01
 -14
 -12
 -9.571429e+00
 -7.142857e+00
 -4.714286e+00
 -2.857143e+00
 -2.714286e+00
 -3.285714e+00
 -2.571429e+00
 -2.142857e+00
 -2.000000e+00
 -2.285714e+00
 -3.000000e+00
 -2.714286e+00
 -1.714286e+00
 -1.714286e+00
 -3
 -4.571429e+00
 -6.714286e+00
 -8
 -6.428571e+00
 0
 1.342857e+01
 3.642857e+01
 6.942857e+01
 112
 1.561429e+02
 1.925714e+02
 2.128571e+02
 2.122857e+02
 1.897143e+02
 1.464286e+02
 8.500000e+01
 1.257143e+01
 -5.785714e+01
 -1.145714e+02
 -1.505714e+02
 -1.657143e+02
 -1.645714e+02
 -1.521429e+02
 -1.314286e+02
 -1.072857e+02
 -8.585714e+01
 -7.014286e+01
 -6.071429e+01
 -5.500000e+01
 -4.971429e+01
 -43
 -3.628571e+01
 -30
 -2.371429e+01
 -1.785714e+01
 -1.257143e+01
 -9.142857e+00
 -6.714286e+00
 -4.857143e+00
 -3.285714e+00
 -2
 -1.142857e+00
 -1.285714e+00
 -1.857143e+00
 -2.714286e+00
 -3.285714e+00
 -2.142857e+00
 -1.142857e+00
 -8.571429e-01
 -1.142857e+00
 -1.285714e+00
 -5.714286e-01
 1.000000e+00
 1.714286e+00
 4.285714e-01
 -4.285714e-01
 -4.285714e-01
 2.857143e-01
 1.285714e+00
 1.571429e+00
 7.142857e-01
 5.714286e-01
 1.142857e+00
 1.428571e+00
 2
 2.142857e+00
 1.571429e+00
 1
 1
 1.142857e+00
 1.571429e+00
 2.285714e+00
 2
 1.428571e+00
 1.714286e+00
 2.571429e+00
 3.857143e+00
 4.571429e+00
 4.571429e+00
 4.285714e+00
 4.714286e+00
 5.571429e+00
 6.714286e+00
 6.714286e+00
 6.285714e+00
 5.857143e+00
 5.571429e+00
 5.857143e+00
 5.857143e+00
 5.714286e+00
 5.571429e+00
 6.428571e+00
 7.285714e+00
 9.142857e+00
 1.100000e+01
 1.285714e+01
 1.371429e+01
 1.428571e+01
 1.385714e+01
 1.328571e+01
 13
 1.214286e+01
 1.128571e+01
 1.057143e+01
 1.042857e+01
 1.071429e+01
 1.171429e+01
 1.271429e+01
 1.328571e+01
 1.328571e+01
 1.314286e+01
 1.257143e+01
 1.242857e+01
 1.200000e+01
 1.085714e+01
 9
 7.285714e+00
 5.714286e+00
 4.428571e+00
 3.000000e+00
 5.714286e-01
 -2.428571e+00
 -5
 -7.428571e+00
 -9.142857e+00
 -1.071429e+01
 -1.271429e+01
 -1.414286e+01
 -1.471429e+01
 -1.471429e+01
 -1.414286e+01
 -1.342857e+01
 -1.314286e+01
 -1.242857e+01
 -1.185714e+01
 -1.185714e+01
 -1.114286e+01
 -1.028571e+01
 -9.857143e+00
 -9.571429e+00
 -9.285714e+00
 -9.285714e+00
 -8.714286e+00
 -8.142857e+00
 -8.000000e+00
 -7.857143e+00
 -7.857143e+00
 -7.857143e+00
 -7.142857e+00
 -5.285714e+00
 -3.857143e+00
 -2.571429e+00
 -2.000000e+00
 -1.571429e+00
 -7.142857e-01
 1
 2.000000e+00
 1.714286e+00
 1.571429e+00
 1.714286e+00
 3.285714e+00
 4.857143e+00
 5
 3.857143e+00
 3.285714e+00
 2.857143e+00
 3
 3.285714e+00
 2.428571e+00
 1.714286e+00
 1.571429e+00
 2.285714e+00
 2.714286e+00
 3.142857e+00
 2.428571e+00
 1.571429e+00
 8.571429e-01
 8.571429e-01
 1.428571e+00
 1.857143e+00
 1.714286e+00
 1.428571e+00
 1.857143e+00
 2.285714e+00
 2.714286e+00
 2.285714e+00
 1.428571e+00
 7.142857e-01
 5.714286e-01
 -5.551115e-17
 -4.285714e-01
 -1.428571e-01
 -1.428571e-01
 -1.428571e-01
 0
 -5.714286e-01
 -1.142857e+00
 -4.285714e-01
 -8.571429e-01
 -2.000000e+00
 -2.571429e+00
 -2.571429e+00
 -2
 -1.000000e+00
 -1.285714e+00
 -1.714286e+00
 -1.142857e+00
 -7.142857e-01
 -4.285714e-01
 -4.285714e-01
 -4.285714e-01
 -1.428571e-01
 2.857143e-01
 0
 5.714286e-01
 1.142857e+00
 1.571429e+00
 1.428571e+00
 1
 4.285714e-01
 1
 1.571429e+00
 4.285714e-01
 -8.571429e-01
 -1.714286e+00
 -2.428571e+00
 -2.571429e+00
 -2.857143e+00
 -3.714286e+00
 -3.857143e+00
 -3.428571e+00
 -3.285714e+00
 -2.428571e+00
 -1.428571e+00
 -8.571429e-01
 -1.142857e+00
 -1.142857e+00
 -1
 5.714286e-01
 2.000000e+00
 1.857143e+00
 1.142857e+00
 7.142857e-01
 1.000000e+00
 1.428571e+00
 1.142857e+00
 -2.857143e-01
 -8.571429e-01
 -1
 -4.285714e-01
 4.285714e-01
 1.285714e+00
 1.285714e+00
 1.000000e+00
 1.428571e-01
 -5.714286e-01
 -7.142857e-01
 -1.142857e+00
 -2.571429e+00
 -3.571429e+00
 -4.285714e+00
 -3.428571e+00
 -1.142857e+00
 2.857143e-01
 5.714286e-01
 7.142857e-01
 1.142857e+00
 1.714286e+00
 2.428571e+00
 1.571429e+00
 1.665335e-16
 -2.857143e-01
 1.142857e+00
 3.714286e+00
 8
 1.257143e+01
 1.685714e+01
 2.114286e+01
 2.414286e+01
 2.528571e+01
 2.471429e+01
 2.171429e+01
 1.528571e+01
 8.142857e+00
 1.571429e+00
 -4.142857e+00
 -7.857143e+00
 -1.028571e+01
 -1.200000e+01
 -1.171429e+01
 -1.014286e+01
 -9.142857e+00
 -8.428571e+00
 -8.428571e+00
 -1.042857e+01
 -13
 -1.585714e+01
 -1.871429e+01
 -1.985714e+01
 -1.957143e+01
 -1.928571e+01
 -18
 -1.542857e+01
 -1.228571e+01
 -8.857143e+00
 -6.142857e+00
 -4.857143e+00
 -4.714286e+00
 -4.428571e+00
 -5.142857e+00
 -5.285714e+00
 -5.428571e+00
 -5.428571e+00
 -5.714286e+00
 -5.285714e+00
 -4.714286e+00
 -3.571429e+00
 -2.714286e+00
 -3.285714e+00
 -4.285714e+00
 -5.285714e+00
 -4.714286e+00
 -1.571429e+00
 6.857143e+00
 20
 41
 7.128571e+01
 1.094286e+02
 1.478571e+02
 1.768571e+02
 1.884286e+02
 1.817143e+02
 1.575714e+02
 1.142857e+02
 5.428571e+01
 -1.500000e+01
 -8.028571e+01
 -1.282857e+02
 -1.542857e+02
 -1.630000e+02
 -1.567143e+02
 -139
 -1.142857e+02
 -8.742857e+01
 -65
 -5.114286e+01
 -4.357143e+01
 -3.971429e+01
 -3.785714e+01
 -3.528571e+01
 -3.157143e+01
 -2.785714e+01
 -2.314286e+01
 -1.842857e+01
 -1.485714e+01
 -12
 -9.142857e+00
 -5.857143e+00
 -2.428571e+00
 -2.857143e-01
 2.857143e-01
 0
 -2.857143e-01
 -2.857143e-01
 -1.000000e+00
 -2.285714e+00
 -3.714286e+00
 -5.000000e+00
 -5.857143e+00
 -5.428571e+00
 -4.714286e+00
 -4.142857e+00
 -4.142857e+00
 -4.714286e+00
 -4.571429e+00
 -3.142857e+00
 -2.000000e+00
 -2.428571e+00
 -3.142857e+00
 -3.571429e+00
 -3.285714e+00
 -2.428571e+00
 -1.857143e+00
 -1.285714e+00
 -5.714286e-01
 -4.285714e-01
 -1.000000e+00
 -1.285714e+00
 -1.000000e+00
 -7.142857e-01
 -1.857143e+00
 -3.285714e+00
 -3.285714e+00
 -1.285714e+00
 1.285714e+00
 3.428571e+00
 4.000000e+00
 4.428571e+00
 5.857143e+00
 7.000000e+00
 7.142857e+00
 6.714286e+00
 5.285714e+00
 3.428571e+00
 2.571429e+00
 2.571429e+00
 2.571429e+00
 2.428571e+00
 2.000000e+00
 1.857143e+00
 3.142857e+00
 5.285714e+00
 7
 8
 8.857143e+00
 9.857143e+00
 1.100000e+01
 1.242857e+01
 1.371429e+01
 1.442857e+01
 1.485714e+01
 1.500000e+01
 1.471429e+01
 1.428571e+01
 1.385714e+01
 1.300000e+01
 1.171429e+01
 1.028571e+01
 9.142857e+00
 7.857143e+00
 7.571429e+00
 7.571429e+00
 7.142857e+00
 6.428571e+00
 5.857143e+00
 5.714286e+00
 5.857143e+00
 5.857143e+00
 3.857143e+00
 1.285714e+00
 -1.428571e+00
 -3.714286e+00
 -6
 -8.285714e+00
 -1.085714e+01
 -1.257143e+01
 -1.300000e+01
 -1.328571e+01
 -1.285714e+01
 -1.257143e+01
 -1.242857e+01
 -1.242857e+01
 -12
 -1.200000e+01
 -1.100000e+01
 -1.000000e+01
 -9.428571e+00
 -9
 -8.714286e+00
 -8.571429e+00
 -8.428571e+00
 -7.857143e+00
 -7.714286e+00
 -7.571429e+00
 -7.142857e+00
 -6.285714e+00
 -4.714286e+00
 -2.857143e+00
 -1.857143e+00
 -1.142857e+00
 -1.000000e+00
 -4.285714e-01
 5.714286e-01
 1.285714e+00
 1.285714e+00
 1.142857e+00
 1.285714e+00
 1.571429e+00
 2.571429e+00
 3.428571e+00
 3.571429e+00
 3.285714e+00
 3.428571e+00
 3.857143e+00
 4.571429e+00
 5.000000e+00
 3.857143e+00
 2.857143e+00
 2.428571e+00
 2.428571e+00
 2.428571e+00
 2.571429e+00
 2.428571e+00
 2.714286e+00
 3.857143e+00
 5.142857e+00
 6.142857e+00
 6.714286e+00
 7.142857e+00
 6.571429e+00
 6.428571e+00
 5.857143e+00
 5.857143e+00
 5.571429e+00
 4.714286e+00
 4.428571e+00
 4.428571e+00
 5.000000e+00
 5.571429e+00
 6.000000e+00
 5.714286e+00
 6
 6.000000e+00
 5.714286e+00
 5.285714e+00
 5.142857e+00
 4.285714e+00
 3.857143e+00
 3.428571e+00
 2.285714e+00
 2.428571e+00
 2.571429e+00
 2
 1.571429e+00
 1.142857e+00
 4.285714e-01
 1.142857e+00
 1.571429e+00
 1.714286e+00
 2.000000e+00
 2.285714e+00
 2.714286e+00
 4.142857e+00
 5.285714e+00
 5.285714e+00
 5.285714e+00
 4.142857e+00
 2.857143e+00
 2.714286e+00
 2.000000e+00
 5.714286e-01
 -1.142857e+00
 -2.428571e+00
 -2.571429e+00
 -8.571429e-01
 1.428571e-01
 1.428571e-01
 -2.857143e-01
 4.285714e-01
 1.714286e+00
 3.142857e+00
 3.142857e+00
 2.571429e+00
 2.428571e+00
 2.714286e+00
 3.285714e+00
 3.285714e+00
 3.428571e+00
 3.000000e+00
 2.571429e+00
 2.285714e+00
 3
 3.714286e+00
 4.285714e+00
 3.714286e+00
 2.857143e+00
 2.571429e+00
 2.714286e+00
 2.714286e+00
 2.285714e+00
 1.571429e+00
 1.571429e+00
 2.142857e+00
 3.142857e+00
 4
 4.714286e+00
 5.142857e+00
 5.285714e+00
 5.142857e+00
 5
 5.142857e+00
 5.571429e+00
 6.428571e+00
 7.857143e+00
 1.042857e+01
 1.385714e+01
 1.857143e+01
 2.228571e+01
 2.471429e+01
 2.542857e+01
 2.471429e+01
 2.257143e+01
 1.871429e+01
 1.342857e+01
 7.142857e+00
 1.571429e+00
 -3.000000e+00
 -6.571429e+00
 -9
 -9.428571e+00
 -9.714286e+00
 -9.571429e+00
 -9.428571e+00
 -9.571429e+00
 -9.142857e+00
 -8.857143e+00
 -10
 -1.142857e+01
 -1.257143e+01
 -1.328571e+01
 -1.285714e+01
 -12
 -1.185714e+01
 -1.142857e+01
 -1.042857e+01
 -8.714286e+00
 -6.428571e+00
 -4.285714e+00
 -3.285714e+00
 -2.714286e+00
 -2
 -8.571429e-01
 4.285714e-01
 1
 4.285714e-01
 -5.714286e-01
 -1.000000e+00
 -4.285714e-01
 2.857143e-01
 -5.714286e-01
 -2.714286e+00
 -6.000000e+00
 -8.714286e+00
 -9.714286e+00
 -7.714286e+00
 -1.428571e+00
 1.257143e+01
 3.642857e+01
 7.185714e+01
 1.165714e+02
 1.644286e+02
 2.045714e+02
 2.287143e+02
 2.328571e+02
 2.142857e+02
 1.717143e+02
 1.084286e+02
 32
 -4.557143e+01
 -1.107143e+02
 -1.562857e+02
 -1.798571e+02
 -1.827143e+02
 -1.688571e+02
 -1.452857e+02
 -1.172857e+02
 -9.057143e+01
 -6.928571e+01
 -5.428571e+01
 -4.585714e+01
 -4.271429e+01
 -4.028571e+01
 -3.685714e+01
 -3.285714e+01
 -2.842857e+01
 -2.457143e+01
 -2.185714e+01
 -1.885714e+01
 -1.614286e+01
 -1.300000e+01
 -9.428571e+00
 -6.714286e+00
 -5.428571e+00
 -3.857143e+00
 -1.857143e+00
 -2.857143e-01
 1.285714e+00
 1.428571e+00
 8.571429e-01
 7.142857e-01
 7.142857e-01
 2.857143e-01
 1.428571e-01
 -4.285714e-01
 -7.142857e-01
 -1.000000e+00
 -1.285714e+00
 -1.571429e+00
 -8.571429e-01
 1.428571e-01
 2.857143e-01
 0
 -4.285714e-01
 -2.857143e-01
 4.285714e-01
 1.000000e+00
 4.285714e-01
 -2.857143e-01
 -4.285714e-01
 2.857143e-01
 1.142857e+00
 2
 2
 1.857143e+00
 2.142857e+00
 2.714286e+00
 3.428571e+00
 3.714286e+00
 3.857143e+00
 3.571429e+00
 3.714286e+00
 4.428571e+00
 5.714286e+00
 6.714286e+00
 7.142857e+00
 7.142857e+00
 6.857143e+00
 7.142857e+00
 7.857143e+00
 8
 7.285714e+00
 6.428571e+00
 6.428571e+00
 7.285714e+00
 8.714286e+00
 1.014286e+01
 1.071429e+01
 1.114286e+01
 1.171429e+01
 1.171429e+01
 1.171429e+01
 1.185714e+01
 1.128571e+01
 1.071429e+01
 1.085714e+01
 1.157143e+01
 1.328571e+01
 1.528571e+01
 1.600000e+01
 1.585714e+01
 1.585714e+01
 1.542857e+01
 1.485714e+01
 1.342857e+01
 1.100000e+01
 8.571429e+00
 7.142857e+00
 6.142857e+00
 5.714286e+00
 5.285714e+00
 4.000000e+00
 3
 2.142857e+00
 1.571429e+00
 5.714286e-01
 -1.285714e+00
 -4.571429e+00
 -7.428571e+00
 -9.857143e+00
 -1.242857e+01
 -15
 -1.742857e+01
 -1.885714e+01
 -1.914286e+01
 -1.842857e+01
 -1.785714e+01
 -1.614286e+01
 -1.442857e+01
 -1.300000e+01
 -12
 -1.128571e+01
 -1.085714e+01
 -1.014286e+01
 -10
 -1.028571e+01
 -1.014286e+01
 -10
 -9.428571e+00
 -8.571429e+00
 -7.571429e+00
 -7.000000e+00
 -6.428571e+00
 -6.142857e+00
 -5.857143e+00
 -4.714286e+00
 -3.857143e+00
 -3.857143e+00
 -3.714286e+00
 -3.285714e+00
 -2.714286e+00
 -1.285714e+00
 0
 4.285714e-01
 7.142857e-01
 8.571429e-01
 8.571429e-01
 1.857143e+00
 2.714286e+00
 2.428571e+00
 2.285714e+00
 2.428571e+00
 2.857143e+00
 3.714286e+00
 3.857143e+00
 2.428571e+00
 1.142857e+00
 1.428571e-01
 -2.857143e-01
 -2.857143e-01
 -4.285714e-01
 -1
 -1
 -4.285714e-01
 5.714286e-01
 1.857143e+00
 2.428571e+00
 2.428571e+00
 2.571429e+00
 3.142857e+00
 3.000000e+00
 3.142857e+00
 2.428571e+00
 1.714286e+00
 1
 4.285714e-01
 -5.714286e-01
 -5.714286e-01
 -2.857143e-01
 -7.142857e-01
 -5.714286e-01
 -5.714286e-01
 -2.857143e-01
 1
 2.571429e+00
 2.857143e+00
 3.428571e+00
 3.571429e+00
 3.285714e+00
 3.571429e+00
 3.857143e+00
 2.857143e+00
 1.428571e+00
 1.428571e-01
 -5.714286e-01
 0
 7.142857e-01
 0
 -1
 -1.571429e+00
 -1.571429e+00
 -1.142857e+00
 -1.285714e+00
 -2.285714e+00
 -3.000000e+00
 -3.000000e+00
 -2.285714e+00
 -1
 -1.110223e-16
 7.142857e-01
 1
 1.000000e+00
 1.571429e+00
 2.285714e+00
 2.428571e+00
 1.142857e+00
 -2.857143e-01
 -1.285714e+00
 -1.428571e+00
 -1.285714e+00
 -1.714286e+00
 -2.428571e+00
 -2.857143e+00
 -2.285714e+00
 -1.571429e+00
 -8.571429e-01
 -2.857143e-01
 1.110223e-16
 0
 2.857143e-01
 1.428571e-01
 1.428571e-01
 1.142857e+00
 8.571429e-01
 4.285714e-01
 2.857143e-01
 7.142857e-01
 1.285714e+00
 2
 1.285714e+00
 -1.428571e-01
 -1.285714e+00
 -2.000000e+00
 -2.428571e+00
 -2.428571e+00
 -3.142857e+00
 -3.857143e+00
 -3.142857e+00
 -1.428571e+00
 8.571429e-01
 2.571429e+00
 3.285714e+00
 2.857143e+00
 3.285714e+00
 3.857143e+00
 3.857143e+00
 2.571429e+00
 1.428571e+00
 4.285714e-01
 1.000000e+00
 2.285714e+00
 4.142857e+00
 7.142857e+00
 1.114286e+01
 1.528571e+01
 1.885714e+01
 2.157143e+01
 2.314286e+01
 2.342857e+01
 2.128571e+01
 1.685714e+01
 1.085714e+01
 5.142857e+00
 7.142857e-01
 -2.857143e+00
 -6.142857e+00
 -8.571429e+00
 -9.714286e+00
 -9.857143e+00
 -8.857143e+00
 -8.000000e+00
 -8.285714e+00
 -9.571429e+00
 -1.114286e+01
 -1.242857e+01
 -13
 -1.357143e+01
 -15
 -1.614286e+01
 -1.614286e+01
 -1.471429e+01
 -1.257143e+01
 -1.071429e+01
 -9.714286e+00
 -8.428571e+00
 -7.000000e+00
 -5.857143e+00
 -5.142857e+00
 -4.714286e+00
 -4.428571e+00
 -3.857143e+00
 -3.428571e+00
 -3.571429e+00
 -2.857143e+00
 -1.857143e+00
 -1.428571e+00
 -1.857143e+00
 -2.857143e+00
 -4.571429e+00
 -6.142857e+00
 -8.285714e+00
 -1.171429e+01
 -1.357143e+01
 -1.085714e+01
 -1.428571e+00
 1.657143e+01
 4.342857e+01
 80
 125
 1.720000e+02
 2.094286e+02
 2.292857e+02
 2.282857e+02
 2.048571e+02
 1.587143e+02
 9.385714e+01
 18
 -5.585714e+01
 -1.154286e+02
 -1.552857e+02
 -1.741429e+02
 -1.744286e+02
 -1.601429e+02
 -1.374286e+02
 -1.112857e+02
 -8.842857e+01
 -72
 -6.200000e+01
 -5.700000e+01
 -5.471429e+01
 -5.142857e+01
 -4.671429e+01
 -4.100000e+01
 -3.471429e+01
 -2.842857e+01
 -2.242857e+01
 -1.685714e+01
 -1.257143e+01
 -9.714286e+00
 -7.428571e+00
 -6.000000e+00
 -4.571429e+00
 -2.857143e+00
 -1.428571e+00
 -1.714286e+00
 -1.714286e+00
 -1.428571e+00
 -1.428571e-01
 5.714286e-01
 7.142857e-01
 -5.551115e-17
 1.428571e-01
 1.428571e+00
 2.571429e+00
 3.285714e+00
 3.428571e+00
 3.142857e+00
 2.714286e+00
 2.857143e+00
 2.142857e+00
 1.428571e+00
 0
 -1.571429e+00
 -2.571429e+00
 -2.714286e+00
 -2.285714e+00
 -2
 -1.857143e+00
 -1.857143e+00
 -1.142857e+00
 -2.857143e-01
 4.285714e-01
 1.571429e+00
 2.428571e+00
 2.857143e+00
 4.142857e+00
 4.714286e+00
 4.714286e+00
 5.571429e+00
 4.714286e+00
 3.571429e+00
 2.857143e+00
 2.142857e+00
 1.714286e+00
 2.142857e+00
 2.857143e+00
 3.142857e+00
 4.285714e+00
 5.285714e+00
 6.285714e+00
 8.000000e+00
 9.285714e+00
 9.714286e+00
 1.028571e+01
 1.085714e+01
 1.142857e+01
 12
 1.214286e+01
 1.171429e+01
 1.085714e+01
 1.057143e+01
 1.028571e+01
 1.028571e+01
 1.014286e+01
 9.571429e+00
 9.428571e+00
 10
 1.157143e+01
 1.328571e+01
 1.457143e+01
 1.528571e+01
 1.585714e+01
 1.657143e+01
 1.657143e+01
 1.557143e+01
 1.385714e+01
 1.185714e+01
 1.014286e+01
 9
 7.857143e+00
 6.857143e+00
 6.285714e+00
 5.571429e+00
 4.142857e+00
 2.428571e+00
 1.142857e+00
 -7.142857e-01
 -2.571429e+00
 -5.571429e+00
 -8.857143e+00
 -1.114286e+01
 -1.228571e+01
 -1.371429e+01
 -15
 -1.614286e+01
 -1.671429e+01
 -1.614286e+01
 -1.557143e+01
 -1.471429e+01
 -1.457143e+01
 -1.428571e+01
 -1.471429e+01
 -1.428571e+01
 -1.371429e+01
 -1.242857e+01
 -1.185714e+01
 -1.128571e+01
 -1.057143e+01
 -9.285714e+00
 -7.571429e+00
 -6.428571e+00
 -6
 -5.857143e+00
 -5.142857e+00
 -4.285714e+00
 -2.714286e+00
 -1.428571e+00
 -4.285714e-01
 1.428571e-01
 8.571429e-01
 1.285714e+00
 2.285714e+00
 2.428571e+00
 1.857143e+00
 8.571429e-01
 2.857143e-01
 -1.428571e-01
 -1.428571e-01
 -2.857143e-01
 -1.000000e+00
 -1.714286e+00
 -2.000000e+00
 -1.571429e+00
 -1.000000e+00
 -2.857143e-01
 5.551115e-17
 2.857143e-01
 7.142857e-01
 1.285714e+00
 1.571429e+00
 2.000000e+00
 2.000000e+00
 1.571429e+00
 1.142857e+00
 1
 1.428571e+00
 2.428571e+00
 3
 2.857143e+00
 2.142857e+00
 2
 2.142857e+00
 2.285714e+00
 1.285714e+00
 -5.714286e-01
 -2.000000e+00
 -2.142857e+00
 -1.714286e+00
 -1.000000e+00
 -4.285714e-01
 -2.857143e-01
 1.428571e-01
 7.142857e-01
 1.285714e+00
 1.714286e+00
 1.714286e+00
 8.571429e-01
 0
 -2.857143e-01
 1.428571e-01
 7.142857e-01
 5.714286e-01
 -8.571429e-01
 -2
 -2.142857e+00
 -1.714286e+00
 -1.714286e+00
 -2.142857e+00
 -2.571429e+00
 -2.571429e+00
 -2
 -7.142857e-01
 -4.285714e-01
 -5.714286e-01
 -7.142857e-01
 -8.571429e-01
 -5.714286e-01
 5.714286e-01
 8.571429e-01
 5.714286e-01
 2.857143e-01
 -5.551115e-17
 -1.428571e-01
 -2.857143e-01
 -1
 -2.142857e+00
 -2.571429e+00
 -2.857143e+00
 -3.142857e+00
 -2.857143e+00
 -2.142857e+00
 -2.000000e+00
 -1.428571e+00
 -1.571429e+00
 -1.142857e+00
 -2.857143e-01
 1.142857e+00
 1.571429e+00
 1.571429e+00
 1.285714e+00
 1.142857e+00
 1.571429e+00
 1.428571e+00
 7.142857e-01
 -2.857143e-01
 -1.142857e+00
 -1.857143e+00
 -1.285714e+00
 -7.142857e-01
 -1.428571e-01
 -1.428571e-01
 1.110223e-16
 4.285714e-01
 1.714286e+00
 2.857143e+00
 3.285714e+00
 3
 2.857143e+00
 3.571429e+00
 4.714286e+00
 5.857143e+00
 6.142857e+00
 5.857143e+00
 6.142857e+00
 6.571429e+00
 7.571429e+00
 8.428571e+00
 8.142857e+00
 7.857143e+00
 9.000000e+00
 1.100000e+01
 14
 1.742857e+01
 20
 2.228571e+01
 2.414286e+01
 2.385714e+01
 2.157143e+01
 1.814286e+01
 1.228571e+01
 5.571429e+00
 -1.285714e+00
 -7.142857e+00
 -1.114286e+01
 -1.271429e+01
 -1.400000e+01
 -1.471429e+01
 -1.428571e+01
 -1.314286e+01
 -1.157143e+01
 -1.057143e+01
 -1.100000e+01
 -1.314286e+01
 -1.528571e+01
 -1.671429e+01
 -1.742857e+01
 -1.757143e+01
 -1.814286e+01
 -1.942857e+01
 -1.942857e+01
 -1.728571e+01
 -1.428571e+01
 -1.185714e+01
 -1.071429e+01
 -1.014286e+01
 -8.428571e+00
 -5.857143e+00
 -4.142857e+00
 -4
 -4.714286e+00
 -5.571429e+00
 -5.428571e+00
 -5.142857e+00
 -5.571429e+00
 -5.857143e+00
 -6.142857e+00
 -6.285714e+00
 -6.000000e+00
 -5.571429e+00
 -5.714286e+00
 -5.571429e+00
 -6
 -5.714286e+00
 -1.142857e+00
 9.142857e+00
 2.457143e+01
 47
 78
 1.155714e+02
 1.550000e+02
 1.855714e+02
 1.998571e+02
 1.968571e+02
 1.758571e+02
 1.338571e+02
 7.414286e+01
 5.285714e+00
 -6.071429e+01
 -1.127143e+02
 -1.465714e+02
 -1.634286e+02
 -1.632857e+02
 -1.481429e+02
 -1.247143e+02
 -100
 -8.000000e+01
 -6.614286e+01
 -5.814286e+01
 -5.385714e+01
 -5.171429e+01
 -4.928571e+01
 -4.528571e+01
 -3.985714e+01
 -34
 -27
 -1.971429e+01
 -1.357143e+01
 -1.014286e+01
 -8.000000e+00
 -6.142857e+00
 -4.285714e+00
 -2.285714e+00
 -2.000000e+00
 -2.571429e+00
 -2.714286e+00
 -1.857143e+00
 -1
 0
 -1.428571e-01
 2.857143e-01
 8.571429e-01
 1.000000e+00
 7.142857e-01
 7.142857e-01
 1.000000e+00
 1.142857e+00
 1.571429e+00
 1
 7.142857e-01
 1
 1.571429e+00
 1.428571e+00
 7.142857e-01
 -7.142857e-01
 -2
 -2.285714e+00
 -1.714286e+00
 -1.428571e+00
 -1.857143e+00
 -2.142857e+00
 -2.142857e+00
 -8.571429e-01
 7.142857e-01
 1.285714e+00
 1.714286e+00
 2.571429e+00
 3.428571e+00
 3.571429e+00
 3.857143e+00
 4
 4.142857e+00
 3.142857e+00
 1.714286e+00
 1.000000e+00
 2
 3.714286e+00
 4.428571e+00
 3.857143e+00
 3.857143e+00
 5.428571e+00
 7.142857e+00
 7.857143e+00
 6.571429e+00
 5.571429e+00
 5.714286e+00
 7.142857e+00
 7.714286e+00
 7.428571e+00
 6.285714e+00
 5.571429e+00
 6.142857e+00
 6.857143e+00
 7.428571e+00
 7.142857e+00
 7.142857e+00
 8.571429e+00
 1.028571e+01
 1.185714e+01
 1.285714e+01
 1.314286e+01
 1.328571e+01
 1.342857e+01
 13
 1.257143e+01
 1.214286e+01
 1.157143e+01
 1.057143e+01
 1.014286e+01
 9.571429e+00
 9.571429e+00
 9.714286e+00
 9.285714e+00
 8.857143e+00
 8.285714e+00
 7.428571e+00
 7
 6.571429e+00
 5.428571e+00
 3.428571e+00
 1.000000e+00
 -1.142857e+00
 -2.428571e+00
 -3.428571e+00
 -5.714286e+00
 -8.142857e+00
 -1.042857e+01
 -1.185714e+01
 -1.242857e+01
 -1.300000e+01
 -1.400000e+01
 -1.442857e+01
 -1.428571e+01
 -1.357143e+01
 -1.242857e+01
 -1.128571e+01
 -1.114286e+01
 -1.071429e+01
 -1.057143e+01
 -1.028571e+01
 -9.142857e+00
 -7.571429e+00
 -6.857143e+00
 -6.142857e+00
 -5.571429e+00
 -5.000000e+00
 -3.857143e+00
 -2.857143e+00
 -3.428571e+00
 -4.000000e+00
 -3.571429e+00
 -2.714286e+00
 -4.285714e-01
 1.285714e+00
 2
 3
 4.142857e+00
 4.428571e+00
 4.428571e+00
 3.571429e+00
 2.428571e+00
 1.714286e+00
 1.714286e+00
 1.428571e+00
 1.714286e+00
 2.714286e+00
 3.428571e+00
 4.428571e+00
 4.857143e+00
 4.714286e+00
 5.428571e+00
 6.142857e+00
 6.142857e+00
 5.714286e+00
 5.428571e+00
 5.285714e+00
 5.857143e+00
 6.142857e+00
 5.571429e+00
 4.571429e+00
 4.571429e+00
 4.571429e+00
 4.714286e+00
 4.285714e+00
 3.285714e+00
 2.857143e+00
 2.714286e+00
 2.714286e+00
 2.142857e+00
 2.000000e+00
 1.857143e+00
 1.857143e+00
 1.857143e+00
 2.142857e+00
 1.857143e+00
 2.142857e+00
 2.571429e+00
 2.571429e+00
 2.714286e+00
 3.142857e+00
 3.428571e+00
 3.714286e+00
 3.428571e+00
 2.142857e+00
 8.571429e-01
 1.665335e-16
 -4.285714e-01
 -1.000000e+00
 -1.714286e+00
 -2.428571e+00
 -2.428571e+00
 -1.714286e+00
 -7.142857e-01
 -5.714286e-01
 -7.142857e-01
 -7.142857e-01
 -4.285714e-01
 -2.857143e-01
 0
 1.428571e-01
 0
 2.857143e-01
 0
 4.285714e-01
 8.571429e-01
 1.714286e+00
 1.571429e+00
 1.285714e+00
 5.714286e-01
 5.714286e-01
 7.142857e-01
 7.142857e-01
 2.857143e-01
 -4.285714e-01
 -4.285714e-01
 -2.857143e-01
 4.285714e-01
 5.714286e-01
 7.142857e-01
 2.857143e-01
 2.857143e-01
 2.857143e-01
 4.285714e-01
 7.142857e-01
 1.000000e+00
 1
 2.857143e-01
 1.428571e-01
 5.714286e-01
 1.571429e+00
 1.714286e+00
 1.571429e+00
 1.285714e+00
 1.714286e+00
 3.142857e+00
 4.142857e+00
 4.142857e+00
 4.142857e+00
 4.428571e+00
 4.857143e+00
 6.000000e+00
 6.428571e+00
 6.142857e+00
 6
 6.142857e+00
 6.571429e+00
 8.285714e+00
 1.028571e+01
 12
 1.528571e+01
 1.914286e+01
 2.185714e+01
 2.385714e+01
 2.385714e+01
 2.285714e+01
 2.071429e+01
 1.657143e+01
 1.028571e+01
 4.571429e+00
 1.428571e-01
 -3.285714e+00
 -6.428571e+00
 -8.857143e+00
 -1.014286e+01
 -9.428571e+00
 -8.000000e+00
 -7.571429e+00
 -7.857143e+00
 -8.714286e+00
 -9.571429e+00
 -1.100000e+01
 -1.228571e+01
 -1.357143e+01
 -1.485714e+01
 -1.557143e+01
 -1.542857e+01
 -1.428571e+01
 -1.200000e+01
 -9.571429e+00
 -8
 -6.857143e+00
 -5.428571e+00
 -4.285714e+00
 -2.428571e+00
 -1.857143e+00
 -2.142857e+00
 -2.285714e+00
 -1.714286e+00
 -4.285714e-01
 8.571429e-01
 1.142857e+00
 7.142857e-01
 4.285714e-01
 0
 -1.000000e+00
 -3.428571e+00
 -6.571429e+00
 -9.285714e+00
 -9
 -3.285714e+00
 9.857143e+00
 3.071429e+01
 61
 1.014286e+02
 1.467143e+02
 1.887143e+02
 2.177143e+02
 227
 2.155714e+02
 1.821429e+02
 1.268571e+02
 5.600000e+01
 -1.928571e+01
 -8.728571e+01
 -1.374286e+02
 -1.672857e+02
 -1.781429e+02
 -1.711429e+02
 -1.507143e+02
 -1.242857e+02
 -9.771429e+01
 -7.614286e+01
 -6.028571e+01
 -50
 -4.414286e+01
 -4.057143e+01
 -3.700000e+01
 -3.185714e+01
 -2.628571e+01
 -2.142857e+01
 -17
 -13
 -9.857143e+00
 -7
 -4.857143e+00
 -3.285714e+00
 -2.142857e+00
 -2.857143e-01
 7.142857e-01
 1.142857e+00
 1.428571e+00
 1.285714e+00
 7.142857e-01
 5.551115e-17
 -5.714286e-01
 -8.571429e-01
 -8.571429e-01
 -5.714286e-01
 -4.285714e-01
 5.714286e-01
 2.000000e+00
 2.571429e+00
 2.000000e+00
 8.571429e-01
 2.857143e-01
 4.285714e-01
 5.714286e-01
 -1.428571e-01
 -7.142857e-01
 -1.428571e-01
 1.285714e+00
 2.857143e+00
 3.428571e+00
 3.285714e+00
 3.285714e+00
 2.857143e+00
 2.571429e+00
 2.428571e+00
 2.142857e+00
 2.000000e+00
 1.571429e+00
 1.285714e+00
 2.142857e+00
 3.571429e+00
 4.142857e+00
 3.571429e+00
 3.142857e+00
 3.285714e+00
 4.428571e+00
 5.714286e+00
 5.714286e+00
 5.714286e+00
 6.142857e+00
 7.000000e+00
 8.428571e+00
 9.285714e+00
 9.142857e+00
 9.142857e+00
 9.142857e+00
 9.714286e+00
 1.057143e+01
 1.114286e+01
 1.085714e+01
 11
 1.157143e+01
 1.185714e+01
 1.285714e+01
 1.285714e+01
 1.271429e+01
 1.300000e+01
 1.300000e+01
 1.242857e+01
 13
 1.314286e+01
 1.342857e+01
 1.400000e+01
 1.385714e+01
 1.357143e+01
 14
 1.428571e+01
 1.357143e+01
 1.271429e+01
 1.085714e+01
 9.428571e+00
 9
 8.285714e+00
 6.857143e+00
 5.428571e+00
 3.142857e+00
 1.428571e+00
 4.285714e-01
 -8.571429e-01
 -2.428571e+00
 -4.428571e+00
 -6.714286e+00
 -8.285714e+00
 -9
 -10
 -1.128571e+01
 -1.271429e+01
 -1.385714e+01
 -1.442857e+01
 -1.471429e+01
 -1.585714e+01
 -1.757143e+01
 -1.928571e+01
 -2.057143e+01
 -2.114286e+01
 -2.114286e+01
 -20
 -1.771429e+01
 -1.428571e+01
 -1.028571e+01
 -6.857143e+00
 -3.714286e+00
 -1.000000e+00
 1.000000e+00
 1.571429e+00
 1.428571e+00
 5.714286e-01
 2.857143e-01
 4.285714e-01
 1.428571e-01
 -5.714286e-01
 -1
 -1.000000e+00
 -1.000000e+00
 -7.142857e-01
 -7.142857e-01
 -5.714286e-01
 5.551115e-17
 5.714286e-01
 1.571429e+00
 2.571429e+00
 3.714286e+00
 4.285714e+00
 4.142857e+00
 4.000000e+00
 4.000000e+00
 4.000000e+00
 3.000000e+00
 1.714286e+00
 2.857143e-01
 2.857143e-01
 5.714286e-01
 1
 8.571429e-01
 7.142857e-01
 7.142857e-01
 8.571429e-01
 8.571429e-01
 2.857143e-01
 -1.428571e-01
 -7.142857e-01
 -2.857143e-01
 -1.428571e-01
 2.857143e-01
 1.285714e+00
 2.714286e+00
 3.428571e+00
 3.857143e+00
 3.428571e+00
 2.714286e+00
 2.714286e+00
 2.000000e+00
 4.285714e-01
 -1.857143e+00
 -3.571429e+00
 -4.142857e+00
 -3.714286e+00
 -3.857143e+00
 -4.428571e+00
 -4.428571e+00
 -3.714286e+00
 -2.428571e+00
 -1.571429e+00
 -1.285714e+00
 -1
 -8.571429e-01
 -1
 -5.714286e-01
 -5.714286e-01
 -1.142857e+00
 -1.428571e+00
 -2
 -2.285714e+00
 -1.428571e+00
 -1.428571e-01
 4.285714e-01
 1.142857e+00
 1.428571e+00
 1.428571e+00
 2.000000e+00
 2.285714e+00
 1.285714e+00
 -1.428571e-01
 -1.000000e+00
 -1.428571e+00
 -5.714286e-01
 2.857143e-01
 -1.110223e-16
 -5.551115e-17
 7.142857e-01
 1.142857e+00
 1.285714e+00
 7.142857e-01
 -4.285714e-01
 -1.285714e+00
 -2
 -3.142857e+00
 -3.571429e+00
 -2.857143e+00
 -2.285714e+00
 -1.285714e+00
 -1.428571e-01
 1.142857e+00
 3.285714e+00
 5.285714e+00
 6.285714e+00
 7
 7.285714e+00
 7.142857e+00
 7.428571e+00
 7.714286e+00
 7.571429e+00
 7.428571e+00
 7.714286e+00
 8.142857e+00
 1.085714e+01
 1.428571e+01
 1.685714e+01
 1.828571e+01
 1.871429e+01
 19
 1.914286e+01
 1.714286e+01
 12
 6
 1.000000e+00
 -2.428571e+00
 -4.857143e+00
 -7.428571e+00
 -1.014286e+01
 -1.057143e+01
 -1.000000e+01
 -9.714286e+00
 -1.014286e+01
 -1.200000e+01
 -1.385714e+01
 -1.514286e+01
 -1.657143e+01
 -1.785714e+01
 -1.785714e+01
 -1.742857e+01
 -1.628571e+01
 -1.414286e+01
 -1.242857e+01
 -1.085714e+01
 -9.142857e+00
 -7.857143e+00
 -6.857143e+00
 -5.571429e+00
 -5.285714e+00
 -5.142857e+00
 -4.428571e+00
 -3.428571e+00
 -2.571429e+00
 -2.142857e+00
 -2.857143e+00
 -4.428571e+00
 -5.714286e+00
 -7.571429e+00
 -9.285714e+00
 -10
 -7.000000e+00
 2.428571e+00
 2.100000e+01
 50
 8.957143e+01
 1.358571e+02
 1.801429e+02
 2.115714e+02
 2.245714e+02
 2.167143e+02
 1.854286e+02
 1.322857e+02
 6.185714e+01
 -1.500000e+01
 -8.314286e+01
 -1.314286e+02
 -1.592857e+02
 -1.681429e+02
 -1.615714e+02
 -1.445714e+02
 -1.210000e+02
 -9.685714e+01
 -7.885714e+01
 -6.757143e+01
 -6.085714e+01
 -5.757143e+01
 -5.285714e+01
 -4.542857e+01
 -3.714286e+01
 -2.914286e+01
 -2.242857e+01
 -1.714286e+01
 -1.228571e+01
 -8.428571e+00
 -6.571429e+00
 -5.714286e+00
 -5.285714e+00
 -5
 -3.714286e+00
 -2.428571e+00
 -2
 -1.571429e+00
 -1.428571e+00
 -1.428571e+00
 -5.714286e-01
 7.142857e-01
 1.285714e+00
 2.142857e+00
 2.857143e+00
 4
 5
 5.428571e+00
 4.000000e+00
 2.571429e+00
 1.571429e+00
 -1.428571e-01
 -1.857143e+00
 -3.714286e+00
 -4.714286e+00
 -4.714286e+00
 -4.142857e+00
 -4.714286e+00
 -4.714286e+00
 -3.857143e+00
 -2.428571e+00
 -8.571429e-01
 -2.857143e-01
 1.665335e-16
 1.142857e+00
 2.714286e+00
 3.857143e+00
 4.571429e+00
 4.428571e+00
 4.428571e+00
 4.714286e+00
 5.285714e+00
 5.714286e+00
 5.857143e+00
 5.428571e+00
 5
 5.714286e+00
 6.571429e+00
 7.285714e+00
 7.285714e+00
 6.714286e+00
 7.142857e+00
 8.142857e+00
 9.428571e+00
 9.714286e+00
 9.428571e+00
 9.571429e+00
 1.057143e+01
 1.200000e+01
 1.328571e+01
 1.371429e+01
 1.428571e+01
 1.428571e+01
 1.471429e+01
 1.557143e+01
 1.571429e+01
 1.585714e+01
 1.542857e+01
 1.500000e+01
 1.471429e+01
 15
 1.500000e+01
 1.428571e+01
 1.328571e+01
 12
 1.114286e+01
 1.142857e+01
 1.128571e+01
 1.042857e+01
 9.285714e+00
 7.714286e+00
 6.285714e+00
 4.571429e+00
 2.571429e+00
 -1.110223e-16
 -2.714286e+00
 -4.714286e+00
 -6.857143e+00
 -8.285714e+00
 -9.142857e+00
 -9.857143e+00
 -1.114286e+01
 -1.328571e+01
 -1.514286e+01
 -1.585714e+01
 -1.600000e+01
 -1.571429e+01
 -1.628571e+01
 -1.671429e+01
 -1.585714e+01
 -1.414286e+01
 -1.257143e+01
 -1.171429e+01
 -1.171429e+01
 -1.142857e+01
 -1.028571e+01
 -8.714286e+00
 -7.571429e+00
 -7.000000e+00
 -6.428571e+00
 -5.571429e+00
 -4.571429e+00
 -3.714286e+00
 -2.714286e+00
 -2.142857e+00
 -1.857143e+00
 -1.571429e+00
 -1.428571e+00
 -1
 -1.428571e-01
 -2.857143e-01
 -1
 -1.285714e+00
 -1.000000e+00
 0
 1.142857e+00
 1.142857e+00
 1.428571e+00
 2
 2.714286e+00
 2.857143e+00
 3.000000e+00
 2.714286e+00
 2.428571e+00
 2.571429e+00
 2.571429e+00
 2.571429e+00
 2.857143e+00
 2.714286e+00
 1.714286e+00
 8.571429e-01
 -2.857143e-01
 -1
 -1.714286e+00
 -2.142857e+00
 -2.857143e+00
 -2.857143e+00
 -2.428571e+00
 -1.571429e+00
 -4.285714e-01
 4.285714e-01
 7.142857e-01
 2.857143e-01
 1.428571e-01
 2.857143e-01
 5.714286e-01
 1.428571e-01
 -5.714286e-01
 -1.000000e+00
 -7.142857e-01
 0
 5.714286e-01
 1.428571e-01
 -1.428571e-01
 -1.428571e-01
 -2.857143e-01
 -1.428571e-01
 -4.285714e-01
 -7.142857e-01
 -7.142857e-01
 -1.428571e-01
 2.857143e-01
 8.571429e-01
 1.428571e+00
 1.714286e+00
 1.714286e+00
 2
 1.714286e+00
 1.428571e+00
 1.428571e+00
 1.428571e+00
 1.571429e+00
 1.857143e+00
 2.000000e+00
 1.714286e+00
 1.857143e+00
 1.714286e+00
 7.142857e-01
 -7.142857e-01
 -2.428571e+00
 -4.000000e+00
 -4.285714e+00
 -4.285714e+00
 -4.285714e+00
 -3.857143e+00
 -3.285714e+00
 -2.142857e+00
 -4.285714e-01
 1.428571e-01
 -1.428571e-01
 -7.142857e-01
 -1.285714e+00
 -1
 2.857143e-01
 7.142857e-01
 1.428571e-01
 2.857143e-01
 2.857143e-01
 1.285714e+00
 2.285714e+00
 1.714286e+00
 2.857143e-01
 4.285714e-01
 7.142857e-01
 1.571429e+00
 2.714286e+00
 3
 2.714286e+00
 3.142857e+00
 4.142857e+00
 5.571429e+00
 8.142857e+00
 1.014286e+01
 1.257143e+01
 1.571429e+01
 1.900000e+01
 2.114286e+01
 2.228571e+01
 2.128571e+01
 1.842857e+01
 1.428571e+01
 8.857143e+00
 3.142857e+00
 -1.571429e+00
 -5.571429e+00
 -9.142857e+00
 -1.157143e+01
 -1.285714e+01
 -1.300000e+01
 -1.242857e+01
 -1.271429e+01
 -1.357143e+01
 -1.428571e+01
 -1.485714e+01
 -1.571429e+01
 -1.585714e+01
 -1.585714e+01
 -1.528571e+01
 -1.471429e+01
 -1.414286e+01
 -1.328571e+01
 -1.185714e+01
 -1.014286e+01
 -9.142857e+00
 -8.428571e+00
 -7.857143e+00
 -6.142857e+00
 -4.571429e+00
 -3.000000e+00
 -2.285714e+00
 -1.714286e+00
 -1.142857e+00
 -4.285714e-01
 -1
 -2.857143e+00
 -5.285714e+00
 -8
 -8.857143e+00
 -4.571429e+00
 5.571429e+00
 2.285714e+01
 5.042857e+01
 8.871429e+01
 1.347143e+02
 180
 2.124286e+02
 2.252857e+02
 2.175714e+02
 1.877143e+02
 1.357143e+02
 6.671429e+01
 -1.042857e+01
 -81
 -1.325714e+02
 -1.630000e+02
 -1.734286e+02
 -1.667143e+02
 -1.482857e+02
 -1.230000e+02
 -9.757143e+01
 -7.771429e+01
 -6.442857e+01
 -5.700000e+01
 -5.342857e+01
 -5.042857e+01
 -46
 -4.028571e+01
 -3.328571e+01
 -2.628571e+01
 -20
 -1.442857e+01
 -1.085714e+01
 -8.571429e+00
 -6.571429e+00
 -5.571429e+00
 -4.571429e+00
 -3.285714e+00
 -3.000000e+00
 -3.142857e+00
 -2.857143e+00
 -2.571429e+00
 -1.714286e+00
 -1.000000e+00
 -1.428571e+00
 -2.142857e+00
 -2.000000e+00
 -1.000000e+00
 1.428571e-01
 1.142857e+00
 1
 7.142857e-01
 1.000000e+00
 1.571429e+00
 1.571429e+00
 1.142857e+00
 1.428571e-01
 -7.142857e-01
 -1.000000e+00
 -7.142857e-01
 -2.857143e-01
 -1.428571e-01
 0
 1.428571e-01
 1.428571e-01
 7.142857e-01
 1.000000e+00
 1.285714e+00
 1.285714e+00
 1.142857e+00
 1
 1.714286e+00
 3
 3.714286e+00
 4.000000e+00
 3.571429e+00
 3.714286e+00
 4.571429e+00
 5.428571e+00
 5.142857e+00
 4.714286e+00
 4.428571e+00
 5.142857e+00
 6.285714e+00
 7.142857e+00
 7.571429e+00
 8.285714e+00
 8.857143e+00
 9.428571e+00
 1.014286e+01
 1.057143e+01
 1.114286e+01
 1.128571e+01
 1.085714e+01
 1.071429e+01
 1.128571e+01
 1.228571e+01
 1.285714e+01
 1.342857e+01
 1.400000e+01
 1.514286e+01
 1.657143e+01
 1.714286e+01
 1.657143e+01
 1.585714e+01
 1.457143e+01
 1.300000e+01
 1.100000e+01
 9.285714e+00
 7.857143e+00
 7
 6.571429e+00
 5.571429e+00
 4.857143e+00
 4.857143e+00
 4.571429e+00
 3.857143e+00
 2.428571e+00
 4.285714e-01
 -1.571429e+00
 -2.571429e+00
 -3.857143e+00
 -6.142857e+00
 -9.142857e+00
 -1.185714e+01
 -1.385714e+01
 -1.442857e+01
 -1.557143e+01
 -1.728571e+01
 -1.814286e+01
 -1.857143e+01
 -1.757143e+01
 -1.628571e+01
 -1.542857e+01
 -15
 -1.385714e+01
 -1.242857e+01
 -1.042857e+01
 -8.428571e+00
 -7
 -6.428571e+00
 -5.857143e+00
 -5.571429e+00
 -5.285714e+00
 -4.571429e+00
 -4.428571e+00
 -4.285714e+00
 -4.000000e+00
 -3.285714e+00
 -2.285714e+00
 -8.571429e-01
 1.428571e-01
 2.857143e-01
 -1.428571e-01
 -2.857143e-01
 1.428571e-01
 5.714286e-01
 5.714286e-01
 1.428571e-01
 -2.857143e-01
 -1.428571e-01
 2.857143e-01
 7.142857e-01
 1
 8.571429e-01
 8.571429e-01
 7.142857e-01
 8.571429e-01
 1.285714e+00
 1.571429e+00
 4.285714e-01
 -1
 -2
 -2.428571e+00
 -2.714286e+00
 -2.714286e+00
 -3.142857e+00
 -2.857143e+00
 -1.714286e+00
 -5.714286e-01
 5.714286e-01
 1.714286e+00
 1.857143e+00
 1.285714e+00
 8.571429e-01
 1.428571e-01
 -2.857143e-01
 -2.857143e-01
 -5.714286e-01
 -1.000000e+00
 -7.142857e-01
 5.551115e-17
 7.142857e-01
 1.142857e+00
 1.142857e+00
 2.857143e-01
 -7.142857e-01
 -1.714286e+00
 -1.857143e+00
 -1.714286e+00
 -1.571429e+00
 -1.857143e+00
 -2
 -1.285714e+00
 4.285714e-01
 1.285714e+00
 1.285714e+00
 4.285714e-01
 -5.551115e-17
 2.857143e-01
 1.000000e+00
 8.571429e-01
 2.857143e-01
 -2.857143e-01
 -7.142857e-01
 -4.285714e-01
 -1.428571e-01
 -1.428571e-01
 -5.714286e-01
 -1.285714e+00
 -1.571429e+00
 -8.571429e-01
 -4.285714e-01
 0
 5.551115e-17
 -2.857143e-01
 -1.428571e-01
 5.714286e-01
 8.571429e-01
 1
 1.285714e+00
 7.142857e-01
 -2.857143e-01
 -5.714286e-01
 -8.571429e-01
 -1
 -1.714286e+00
 -3.285714e+00
 -4.428571e+00
 -4.142857e+00
 -2.857143e+00
 -1.857143e+00
 -1.428571e+00
 -1
 -1.665335e-16
 2
 3.857143e+00
 4.428571e+00
 3.857143e+00
 3.428571e+00
 3.285714e+00
 3.714286e+00
 4.142857e+00
 4
 3.571429e+00
 3.714286e+00
 3.714286e+00
 3.857143e+00
 4.285714e+00
 4.285714e+00
 4.857143e+00
 6
 8.571429e+00
 1.228571e+01
 1.657143e+01
 1.942857e+01
 2.128571e+01
 2.171429e+01
 2.085714e+01
 1.814286e+01
 1.371429e+01
 7.857143e+00
 2.285714e+00
 -2.714286e+00
 -6.285714e+00
 -8.714286e+00
 -1.028571e+01
 -1.071429e+01
 -1.100000e+01
 -1.085714e+01
 -1.071429e+01
 -1.085714e+01
 -1.185714e+01
 -1.300000e+01
 -1.471429e+01
 -1.585714e+01
 -1.685714e+01
 -1.728571e+01
 -17
 -1.571429e+01
 -14
 -1.185714e+01
 -9.857143e+00
 -7.857143e+00
 -5.714286e+00
 -4.571429e+00
 -4.142857e+00
 -4.857143e+00
 -5.285714e+00
 -5.714286e+00
 -5.285714e+00
 -5.142857e+00
 -4.857143e+00
 -4.571429e+00
 -3.571429e+00
 -2.428571e+00
 -1.571429e+00
 -2.285714e+00
 -4.285714e+00
 -6.857143e+00
 -8.857143e+00
 -7.142857e+00
 -5.714286e-01
 1.328571e+01
 3.528571e+01
 68
 110
 1.557143e+02
 1.944286e+02
 2.165714e+02
 218
 1.978571e+02
 1.560000e+02
 9.571429e+01
 2.328571e+01
 -5.014286e+01
 -1.104286e+02
 -150
 -1.685714e+02
 -169
 -1.558571e+02
 -1.347143e+02
 -110
 -8.714286e+01
 -7.057143e+01
 -6.042857e+01
 -5.457143e+01
 -51
 -4.685714e+01
 -4.114286e+01
 -3.471429e+01
 -2.814286e+01
 -2.171429e+01
 -1.685714e+01
 -1.385714e+01
 -1.100000e+01
 -8.857143e+00
 -7.142857e+00
 -5.857143e+00
 -4.857143e+00
 -4.000000e+00
 -2.714286e+00
 -1.428571e+00
 -7.142857e-01
 2.857143e-01
 1.000000e+00
 1.428571e+00
 1.285714e+00
 1
 4.285714e-01
 1.428571e-01
 0
 -5.714286e-01
 -1.571429e+00
 -2.142857e+00
 -2.285714e+00
 -2.142857e+00
 -1.285714e+00
 -1.428571e-01
 2.857143e-01
 1.285714e+00
 2.428571e+00
 3.428571e+00
 4.285714e+00
 4.142857e+00
 2.285714e+00
 4.285714e-01
 -7.142857e-01
 -1.285714e+00
 -1.142857e+00
 -1.714286e+00
 -2.571429e+00
 -2.571429e+00
 -1.428571e-01
 1.571429e+00
 2.857143e+00
 2.857143e+00
 2.714286e+00
 3.571429e+00
 5.571429e+00
 6.142857e+00
 5.571429e+00
 5.428571e+00
 4.857143e+00
 5
 5.285714e+00
 5.142857e+00
 4.714286e+00
 5.571429e+00
 5.857143e+00
 6.142857e+00
 7.428571e+00
 8.571429e+00
 9.285714e+00
 9.571429e+00
 9.428571e+00
 9.142857e+00
 1.014286e+01
 1.100000e+01
 1.142857e+01
 1.128571e+01
 1.157143e+01
 1.214286e+01
 1.300000e+01
 1.414286e+01
 1.428571e+01
 1.428571e+01
 1.385714e+01
 1.357143e+01
 1.314286e+01
 1.314286e+01
 1.271429e+01
 1.185714e+01
 1.071429e+01
 1.000000e+01
 9.714286e+00
 10
 9.571429e+00
 8.428571e+00
 7
 5.857143e+00
 5.428571e+00
 4.428571e+00
 2.714286e+00
 2.857143e-01
 -1.857143e+00
 -3.857143e+00
 -5.571429e+00
 -7.571429e+00
 -9.714286e+00
 -1.185714e+01
 -1.314286e+01
 -1.471429e+01
 -1.542857e+01
 -1.557143e+01
 -1.571429e+01
 -1.571429e+01
 -1.571429e+01
 -1.542857e+01
 -1.485714e+01
 -1.314286e+01
 -1.214286e+01
 -1.157143e+01
 -1.128571e+01
 -1.057143e+01
 -9.714286e+00
 -8.571429e+00
 -8.142857e+00
 -7.857143e+00
 -7.285714e+00
 -6.285714e+00
 -4.571429e+00
 -3.285714e+00
 -1.571429e+00
 -5.714286e-01
 1.428571e-01
 1.428571e-01
 4.285714e-01
 7.142857e-01
 1.428571e+00
 1.285714e+00
 2.857143e-01
 -1.428571e-01
 4.285714e-01
 1.857143e+00
 2.571429e+00
 1.857143e+00
 5.714286e-01
 1.428571e-01
 2.857143e-01
 7.142857e-01
 4.285714e-01
 -5.714286e-01
 -1.142857e+00
 -1.285714e+00
 -5.714286e-01
 2.857143e-01
 5.714286e-01
 4.285714e-01
 5.714286e-01
 5.714286e-01
 1.714286e+00
 3
 3.142857e+00
 2.857143e+00
 2.428571e+00
 1.857143e+00
 2
 2.428571e+00
 1.571429e+00
 1.000000e+00
 2.857143e-01
 2.857143e-01
 4.285714e-01
 1.000000e+00
 5.714286e-01
 1.428571e-01
 -4.285714e-01
 -1
 -1.428571e+00
 -1.571429e+00
 -1.571429e+00
 -2.142857e+00
 -2.857143e+00
 -3.285714e+00
 -2.714286e+00
 -1.571429e+00
 -5.714286e-01
 -8.571429e-01
 -5.714286e-01
 1.428571e-01
 1.428571e+00
 2.571429e+00
 2.571429e+00
 1.857143e+00
 1.142857e+00
 7.142857e-01
 1.428571e-01
 -7.142857e-01
 -1.714286e+00
 -2.714286e+00
 -2.857143e+00
 -2.428571e+00
 -1.857143e+00
 -5.714286e-01
 4.285714e-01
 1
 1.000000e+00
 2.857143e-01
 -1.428571e-01
 -5.714286e-01
 -1
 -2.285714e+00
 -3.428571e+00
 -3.857143e+00
 -3.142857e+00
 -1.714286e+00
 -1.000000e+00
 -5.714286e-01
 1.428571e-01
 1.000000e+00
 2.000000e+00
 2.571429e+00
 2.142857e+00
 1.571429e+00
 5.714286e-01
 -2.857143e-01
 -1
 -1
 -8.571429e-01
 -5.714286e-01
 -5.714286e-01
 -5.714286e-01
 1.428571e-01
 1
 1.142857e+00
 4.285714e-01
 -1
 -2.000000e+00
 -2.000000e+00
 -1.714286e+00
 -1.571429e+00
 -1.571429e+00
 -1.142857e+00
 0
 1.714286e+00
 3.428571e+00
 5
 6.428571e+00
 7.714286e+00
 9.428571e+00
 1.171429e+01
 1.442857e+01
 1.757143e+01
 2.014286e+01
 2.257143e+01
 2.442857e+01
 2.571429e+01
 2.557143e+01
 2.442857e+01
 2.142857e+01
 1.685714e+01
 1.157143e+01
 6.428571e+00
 1.857143e+00
 -1.714286e+00
 -5
 -8.428571e+00
 -10
 -1.042857e+01
 -1.014286e+01
 -1.028571e+01
 -1.100000e+01
 -1.257143e+01
 -1.342857e+01
 -1.442857e+01
 -1.571429e+01
 -1.728571e+01
 -1.842857e+01
 -1.928571e+01
 -1.885714e+01
 -1.771429e+01
 -1.542857e+01
 -1.257143e+01
 -9.857143e+00
 -7.571429e+00
 -5.714286e+00
 -3.428571e+00
 -1.857143e+00
 -1.142857e+00
 -1.714286e+00
 -2.571429e+00
 -3.285714e+00
 -3.142857e+00
 -3.285714e+00
 -3.857143e+00
 -4.857143e+00
 -6.285714e+00
 -7.714286e+00
 -9.285714e+00
 -1.057143e+01
 -9.285714e+00
 -2.571429e+00
 1.028571e+01
 3.128571e+01
 6.271429e+01
 1.031429e+02
 1.467143e+02
 1.835714e+02
 2.047143e+02
 2.074286e+02
 1.905714e+02
 1.524286e+02
 9.485714e+01
 2.514286e+01
 -4.542857e+01
 -1.035714e+02
 -1.421429e+02
 -1.612857e+02
 -1.630000e+02
 -1.501429e+02
 -1.284286e+02
 -1.038571e+02
 -8.057143e+01
 -63
 -5.128571e+01
 -4.571429e+01
 -4.414286e+01
 -4.328571e+01
 -3.971429e+01
 -3.471429e+01
 -2.985714e+01
 -26
 -2.271429e+01
 -1.885714e+01
 -1.457143e+01
 -1.028571e+01
 -7.571429e+00
 -6.285714e+00
 -5.571429e+00
 -4.285714e+00
 -3.000000e+00
 -1.428571e+00
 -5.714286e-01
 -5.714286e-01
 -5.714286e-01
 -1.428571e-01
 1.142857e+00
 2.285714e+00
 3.285714e+00
 3.285714e+00
 3.142857e+00
 3.571429e+00
 4.428571e+00
 5.000000e+00
 4.857143e+00
 4.285714e+00
 3.285714e+00
 3.000000e+00
 3.000000e+00
 3.000000e+00
 2.428571e+00
 1.714286e+00
 5.714286e-01
 5.551115e-17
 1.428571e-01
 -5.551115e-17
 0
 -1.428571e-01
 -4.285714e-01
 1.428571e-01
 1.142857e+00
 2.571429e+00
 3.714286e+00
 4.000000e+00
 3.571429e+00
 3.714286e+00
 3.857143e+00
 4.714286e+00
 5.000000e+00
 4.571429e+00
 3.714286e+00
 4.142857e+00
 5.571429e+00
 7.000000e+00
 7.857143e+00
 7.142857e+00
 6.571429e+00
 6.714286e+00
 7.571429e+00
 7.571429e+00
 7.142857e+00
 6.428571e+00
 7.000000e+00
 8.000000e+00
 9.285714e+00
 9.571429e+00
 1.000000e+01
 1.085714e+01
 1.157143e+01
 1.157143e+01
 1.185714e+01
 1.228571e+01
 1.314286e+01
 1.371429e+01
 1.314286e+01
 1.257143e+01
 1.271429e+01
 1.328571e+01
 1.357143e+01
 1.357143e+01
 1.328571e+01
 1.342857e+01
 1.385714e+01
 1.442857e+01
 1.414286e+01
 1.357143e+01
 12
 1.042857e+01
 9
 7.428571e+00
 6.142857e+00
 4.714286e+00
 2.714286e+00
 4.285714e-01
 -1.428571e+00
 -3.142857e+00
 -4.000000e+00
 -5.571429e+00
 -7.714286e+00
 -9.571429e+00
 -1.014286e+01
 -1.000000e+01
 -9.428571e+00
 -1.014286e+01
 -1.185714e+01
 -1.314286e+01
 -1.357143e+01
 -1.357143e+01
 -1.414286e+01
 -1.514286e+01
 -1.600000e+01
 -1.585714e+01
 -1.457143e+01
 -1.257143e+01
 -1.128571e+01
 -1.057143e+01
 -10
 -9.142857e+00
 -7.571429e+00
 -5.857143e+00
 -5.285714e+00
 -4.571429e+00
 -4.428571e+00
 -4.142857e+00
 -3.142857e+00
 -2.000000e+00
 -2.000000e+00
 -2.000000e+00
 -2.285714e+00
 -2.142857e+00
 -1.142857e+00
 -2.857143e-01
 4.285714e-01
 1
 1.285714e+00
 1.428571e+00
 2
 2.285714e+00
 2.571429e+00
 2
 1.285714e+00
 2.857143e-01
 2.857143e-01
 8.571429e-01
 1.142857e+00
 8.571429e-01
 2.857143e-01
 1.428571e-01
 8.571429e-01
 1.714286e+00
 2.000000e+00
 1.857143e+00
 1.857143e+00
 2.142857e+00
 2.857143e+00
 4
 4.428571e+00
 4.285714e+00
 3.857143e+00
 3.428571e+00
 3.428571e+00
 3.428571e+00
 3.000000e+00
 2.142857e+00
 1
 5.714286e-01
 1.428571e-01
 1.428571e-01
 -2.857143e-01
 -1.000000e+00
 -2.142857e+00
 -2.857143e+00
 -3
 -2.571429e+00
 -2.571429e+00
 -2.714286e+00
 -3.285714e+00
 -2.857143e+00
 -1.428571e+00
 -4.285714e-01
 -1.428571e-01
 1.428571e-01
 2.857143e-01
 4.285714e-01
 8.571429e-01
 7.142857e-01
 5.714286e-01
 2.857143e-01
 -4.285714e-01
 -8.571429e-01
 -2.857143e-01
 2.857143e-01
 7.142857e-01
 8.571429e-01
 7.142857e-01
 1.142857e+00
 1.714286e+00
 1.857143e+00
 1.285714e+00
 7.142857e-01
 2.857143e-01
 0
 0
 0
 0
 -4.285714e-01
 -7.142857e-01
 -1.142857e+00
 -1.285714e+00
 -1
 -1.285714e+00
 -1.571429e+00
 -1.142857e+00
 -4.285714e-01
 1.428571e-01
 7.142857e-01
 5.714286e-01
 7.142857e-01
 7.142857e-01
 2.857143e-01
 -7.142857e-01
 -1.285714e+00
 -1.428571e+00
 -1.428571e+00
 -1.571429e+00
 -2.285714e+00
 -2
 -1
 1.428571e-01
 8.571429e-01
 1
 1.000000e+00
 2.000000e+00
 2.714286e+00
 3.142857e+00
 3.000000e+00
 2.857143e+00
 2.428571e+00
 3
 3.857143e+00
 4.285714e+00
 4.571429e+00
 5
 6
 8.857143e+00
 1.285714e+01
 1.628571e+01
 1.971429e+01
 2.271429e+01
 2.485714e+01
 2.628571e+01
 2.628571e+01
 2.300000e+01
 1.757143e+01
 1.142857e+01
 5.428571e+00
 5.714286e-01
 -3.142857e+00
 -6.857143e+00
 -9.571429e+00
 -1.057143e+01
 -1.071429e+01
 -1.085714e+01
 -1.157143e+01
 -1.314286e+01
 -1.485714e+01
 -1.628571e+01
 -1.771429e+01
 -1.857143e+01
 -1.800000e+01
 -1.657143e+01
 -1.500000e+01
 -1.342857e+01
 -1.171429e+01
 -9.571429e+00
 -7.285714e+00
 -6.285714e+00
 -6
 -6.000000e+00
 -5.857143e+00
 -5.285714e+00
 -4.428571e+00
 -3.857143e+00
 -3.285714e+00
 -2.857143e+00
 -3.142857e+00
 -2.428571e+00
 -1.714286e+00
 -1.714286e+00
 -2.857143e+00
 -5.142857e+00
 -7.571429e+00
 -7.857143e+00
 -5.857143e+00
 -2.857143e-01
 1.085714e+01
 2.942857e+01
 58
 9.685714e+01
 1.401429e+02
 1.767143e+02
 1.987143e+02
 2.028571e+02
 1.882857e+02
 1.548571e+02
 1.020000e+02
 3.457143e+01
 -3.571429e+01
 -9.371429e+01
 -1.317143e+02
 -1.507143e+02
 -1.537143e+02
 -1.442857e+02
 -1.265714e+02
 -1.037143e+02
 -8.185714e+01
 -6.657143e+01
 -58
 -5.428571e+01
 -5.271429e+01
 -4.971429e+01
 -44
 -38
 -3.228571e+01
 -2.628571e+01
 -2.085714e+01
 -1.628571e+01
 -1.257143e+01
 -1.042857e+01
 -8.285714e+00
 -6.142857e+00
 -4.285714e+00
 -3.285714e+00
 -2.428571e+00
 -1.714286e+00
 -4.285714e-01
 2.857143e-01
 2.857143e-01
 -4.285714e-01
 -1.142857e+00
 -1.428571e+00
 -8.571429e-01
 -7.142857e-01
 -1.285714e+00
 -1.428571e+00
 -1.428571e+00
 -7.142857e-01
 2.857143e-01
 8.571429e-01
 1.000000e+00
 1.714286e+00
 2.000000e+00
 2.428571e+00
 2.714286e+00
 2.571429e+00
 1.857143e+00
 7.142857e-01
 -4.285714e-01
 -1.142857e+00
 -1.285714e+00
 -1.428571e+00
 -1.285714e+00
 -8.571429e-01
 -2.857143e-01
 8.571429e-01
 2.142857e+00
 3.142857e+00
 4.142857e+00
 4
 3.714286e+00
 4.142857e+00
 5
 5.714286e+00
 5.857143e+00
 5.428571e+00
 5.142857e+00
 6.000000e+00
 7
 7.142857e+00
 6.428571e+00
 5.428571e+00
 5.285714e+00
 6.571429e+00
 7.571429e+00
 8.571429e+00
 8.714286e+00
 9.285714e+00
 1.042857e+01
 1.214286e+01
 1.271429e+01
 1.285714e+01
 1.271429e+01
 1.285714e+01
 1.328571e+01
 1.371429e+01
 1.414286e+01
 1.457143e+01
 1.485714e+01
 1.428571e+01
 14
 1.328571e+01
 1.328571e+01
 1.285714e+01
 1.242857e+01
 1.157143e+01
 1.128571e+01
 1.114286e+01
 1.142857e+01
 1.142857e+01
 1.057143e+01
 9
 7.428571e+00
 6.142857e+00
 4.571429e+00
 3.142857e+00
 7.142857e-01
 -2
 -3.857143e+00
 -5.142857e+00
 -6.857143e+00
 -8.428571e+00
 -10
 -1.157143e+01
 -1.242857e+01
 -13
 -1.357143e+01
 -1.385714e+01
 -1.385714e+01
 -1.428571e+01
 -1.442857e+01
 -1.371429e+01
 -1.371429e+01
 -13
 -1.257143e+01
 -1.214286e+01
 -1.114286e+01
 -9.857143e+00
 -8.857143e+00
 -7.857143e+00
 -6.857143e+00
 -6.142857e+00
 -5.571429e+00
 -5.000000e+00
 -4.571429e+00
 -4.000000e+00
 -3.285714e+00
 -3.142857e+00
 -2.571429e+00
 -1.857143e+00
 -1.000000e+00
 4.285714e-01
 8.571429e-01
 1
 8.571429e-01
 1
 1.857143e+00
 2
 1.571429e+00
 5.714286e-01
 4.285714e-01
 8.571429e-01
 1.571429e+00
 1.571429e+00
 7.142857e-01
 -1.428571e-01
 -2.857143e-01
 5.551115e-17
 5.551115e-17
 2.857143e-01
 1.428571e-01
 7.142857e-01
 1.428571e+00
 2.142857e+00
 2.714286e+00
 3.142857e+00
 2.857143e+00
 1.714286e+00
 7.142857e-01
 -2.857143e-01
 -2.857143e-01
 1.428571e-01
 5.551115e-17
 -8.571429e-01
 -5.714286e-01
 2.857143e-01
 1.571429e+00
 2.000000e+00
 7.142857e-01
 -5.714286e-01
 -1
 -8.571429e-01
 -7.142857e-01
 -7.142857e-01
 -1.000000e+00
 -7.142857e-01
 4.285714e-01
 1.428571e+00
 2.000000e+00
 2.285714e+00
 1.714286e+00
 1.000000e+00
 5.714286e-01
 0
 -1.428571e-01
 2.857143e-01
 -2.857143e-01
 -2.857143e-01
 -5.551115e-17
 7.142857e-01
 1.285714e+00
 1.714286e+00
 8.571429e-01
 1.428571e-01
 2.857143e-01
 2.857143e-01
 2.857143e-01
 1.428571e-01
 0
 -1.428571e-01
 2.857143e-01
 2.857143e-01
 8.571429e-01
 1.428571e+00
 1.428571e+00
 7.142857e-01
 -1.110223e-16
 -2.857143e-01
 -1.428571e-01
 -2.857143e-01
 -1.142857e+00
 -1.857143e+00
 -1.857143e+00
 -1.285714e+00
 -4.285714e-01
 2.857143e-01
 5.714286e-01
 8.571429e-01
 8.571429e-01
 5.714286e-01
 1.142857e+00
 1.571429e+00
 1
 0
 -7.142857e-01
 -1.142857e+00
 -2.857143e-01
 2.857143e-01
 -1.428571e-01
 -4.285714e-01
 -1.428571e-01
 1.428571e-01
 1.285714e+00
 1.857143e+00
 1.714286e+00
 1.571429e+00
 1.714286e+00
 1.857143e+00
 3
 4.285714e+00
 4.857143e+00
 5
 5.000000e+00
 5.571429e+00
 7.142857e+00
 9.428571e+00
 1.157143e+01
 1.414286e+01
 1.671429e+01
 1.985714e+01
 2.228571e+01
 2.428571e+01
 2.328571e+01
 1.957143e+01
 1.428571e+01
 8.714286e+00
 4.000000e+00
 5.551115e-17
 -4.714286e+00
 -9.571429e+00
 -1.200000e+01
 -1.271429e+01
 -1.200000e+01
 -1.185714e+01
 -1.400000e+01
 -1.657143e+01
 -1.728571e+01
 -1.757143e+01
 -18
 -1.871429e+01
 -2.028571e+01
 -2.028571e+01
 -1.814286e+01
 -1.571429e+01
 -1.357143e+01
 -1.142857e+01
 -10
 -8.285714e+00
 -6
 -5.428571e+00
 -5.142857e+00
 -5
 -6.000000e+00
 -6.714286e+00
 -6.428571e+00
 -6.142857e+00
 -5.285714e+00
 -4
 -3.714286e+00
 -3.285714e+00
 -2.428571e+00
 -3.142857e+00
 -4.571429e+00
 -5.714286e+00
 -6.142857e+00
 -2.000000e+00
 9
 27
 5.571429e+01
 9.414286e+01
 1.355714e+02
 1.714286e+02
 1.927143e+02
 1.961429e+02
 1.797143e+02
 143
 8.585714e+01
 1.557143e+01
 -5.542857e+01
 -112
 -1.477143e+02
 -1.635714e+02
 -1.635714e+02
 -1.497143e+02
 -1.258571e+02
 -97
 -7.085714e+01
 -5.385714e+01
 -4.428571e+01
 -3.957143e+01
 -3.657143e+01
 -3.328571e+01
 -2.885714e+01
 -2.457143e+01
 -2.014286e+01
 -1.614286e+01
 -1.257143e+01
 -10
 -7.714286e+00
 -6.285714e+00
 -5.285714e+00
 -4.571429e+00
 -3.428571e+00
 -2.142857e+00
 -7.142857e-01
 5.714286e-01
 1
 5.714286e-01
 -1.428571e-01
 -4.285714e-01
 0
 5.714286e-01
 -1.428571e-01
 -5.714286e-01
 -7.142857e-01
 -2.857143e-01
 4.285714e-01
 8.571429e-01
 0
 -8.571429e-01
 -1.000000e+00
 -5.714286e-01
 7.142857e-01
 1.571429e+00
 1
 4.285714e-01
 1.428571e+00
 3
 4.285714e+00
 3.714286e+00
 2.571429e+00
 1.857143e+00
 2.428571e+00
 2.714286e+00
 2.000000e+00
 1.285714e+00
 1.571429e+00
 2.142857e+00
 2.857143e+00
 3.285714e+00
 3.857143e+00
 4.428571e+00
 4.428571e+00
 3.571429e+00
 3.142857e+00
 3.285714e+00
 3.714286e+00
 4.285714e+00
 4.714286e+00
 5
 6
 7.000000e+00
 7.857143e+00
 9.142857e+00
 9.428571e+00
 9.285714e+00
 9.428571e+00
 1.014286e+01
 1.100000e+01
 1.228571e+01
 12
 1.142857e+01
 1.157143e+01
 1.214286e+01
 1.257143e+01
 1.285714e+01
 1.228571e+01
 1.171429e+01
 12
 1.185714e+01
 1.242857e+01
 13
 1.271429e+01
 1.185714e+01
 1.185714e+01
 1.214286e+01
 1.285714e+01
 1.314286e+01
 1.142857e+01
 9.714286e+00
 8.714286e+00
 7.714286e+00
 6
 4.142857e+00
 8.571429e-01
 -8.571429e-01
 -1.714286e+00
 -3.142857e+00
 -4.857143e+00
 -6.142857e+00
 -7.428571e+00
 -8.285714e+00
 -9
 -1.085714e+01
 -1.200000e+01
 -1.200000e+01
 -1.228571e+01
 -1.285714e+01
 -1.314286e+01
 -1.371429e+01
 -13
 -12
 -1.200000e+01
 -1.242857e+01
 -1.228571e+01
 -1.171429e+01
 -1.071429e+01
 -9.571429e+00
 -8.428571e+00
 -7.142857e+00
 -5.285714e+00
 -3.857143e+00
 -1.857143e+00
 2.857143e-01
 1.428571e+00
 1.571429e+00
 1.428571e+00
 1.428571e+00
 2
 2.142857e+00
 7.142857e-01
 -5.714286e-01
 -8.571429e-01
 -4.285714e-01
 -2.857143e-01
 -4.285714e-01
 -1.571429e+00
 -1.714286e+00
 -1.142857e+00
 -8.571429e-01
 -7.142857e-01
 -1.428571e-01
 4.285714e-01
 8.571429e-01
 1.714286e+00
 2
 2.571429e+00
 2.428571e+00
 1.571429e+00
 -2.857143e-01
 -1.000000e+00
 -1.285714e+00
 -7.142857e-01
 2.857143e-01
 7.142857e-01
 1.571429e+00
 2.714286e+00
 3.857143e+00
 4.285714e+00
 3.857143e+00
 1.857143e+00
 1.428571e-01
 -7.142857e-01
 -1.000000e+00
 -8.571429e-01
 -7.142857e-01
 -1.285714e+00
 -1.285714e+00
 -1.428571e-01
 2.857143e-01
 4.285714e-01
 -4.285714e-01
 -2
 -2.857143e+00
 -2.428571e+00
 -2.428571e+00
 -2.857143e+00
 -3.000000e+00
 -3.285714e+00
 -2.571429e+00
 -1.285714e+00
 -1.142857e+00
 -1.714286e+00
 -1.285714e+00
 -8.571429e-01
 -1.428571e-01
 1.428571e-01
 1.428571e-01
 8.571429e-01
 2.428571e+00
 3.285714e+00
 2.857143e+00
 2.571429e+00
 2.142857e+00
 2.142857e+00
 1.428571e+00
 -1.110223e-16
 -2
 -2.285714e+00
 -2.142857e+00
 -1.571429e+00
 -1.285714e+00
 -1.000000e+00
 -5.714286e-01
 4.285714e-01
 1.285714e+00
 1.285714e+00
 1.428571e+00
 1
 4.285714e-01
 -1.428571e-01
 -8.571429e-01
 -1.428571e+00
 -1.142857e+00
 -8.571429e-01
 -5.714286e-01
 -7.142857e-01
 -5.714286e-01
 4.285714e-01
 2
 2.428571e+00
 2.142857e+00
 1.857143e+00
 2.142857e+00
 3.714286e+00
 5
 4.571429e+00
 4.428571e+00
 5.142857e+00
 6.142857e+00
 7.571429e+00
 8.714286e+00
 9.428571e+00
 1.057143e+01
 1.342857e+01
 1.600000e+01
 1.871429e+01
 2.114286e+01
 2.171429e+01
 2.114286e+01
 1.985714e+01
 1.700000e+01
 1.271429e+01
 7.714286e+00
 1.857143e+00
 -3.428571e+00
 -7.571429e+00
 -1.057143e+01
 -1.257143e+01
 -1.285714e+01
 -1.328571e+01
 -1.257143e+01
 -1.171429e+01
 -1.114286e+01
 -1.057143e+01
 -1.057143e+01
 -1.157143e+01
 -1.271429e+01
 -1.371429e+01
 -1.514286e+01
 -1.542857e+01
 -1.471429e+01
 -1.385714e+01
 -1.257143e+01
 -1.071429e+01
 -9.142857e+00
 -6.285714e+00
 -3.285714e+00
 -2.142857e+00
 -2.142857e+00
 -2.142857e+00
 -1.714286e+00
 -5.714286e-01
 5.714286e-01
 -1.428571e-01
 -1.142857e+00
 -7.142857e-01
 5.551115e-17
 4.285714e-01
 -1.000000e+00
 -4.142857e+00
 -6.857143e+00
 -6.857143e+00
 -3.142857e+00
 6.714286e+00
 25
 5.314286e+01
 93
 1.408571e+02
 1.872857e+02
 2.215714e+02
 237
 2.282857e+02
 1.945714e+02
 1.372857e+02
 6.057143e+01
 -2.500000e+01
 -1.045714e+02
 -166
 -203
 -2.148571e+02
 -2.064286e+02
 -1.822857e+02
 -1.484286e+02
 -1.118571e+02
 -80
 -5.614286e+01
 -4.085714e+01
 -3.257143e+01
 -2.771429e+01
 -24
 -2.057143e+01
 -1.785714e+01
 -1.485714e+01
 -1.157143e+01
 -8.571429e+00
 -6.428571e+00
 -4.285714e+00
 -3.285714e+00
 -2.000000e+00
 -1.142857e+00
 -5.714286e-01
 -5.714286e-01
 -1.142857e+00
 -1.571429e+00
 -1.428571e+00
 -5.714286e-01
 -2.857143e-01
 -2.857143e-01
 -1.428571e-01
 8.571429e-01
 1.857143e+00
 3.285714e+00
 3.857143e+00
 4.428571e+00
 4.142857e+00
 4
 3.714286e+00
 3.857143e+00
 4.000000e+00
 3.428571e+00
 2.285714e+00
 1.571429e+00
 1.857143e+00
 2.428571e+00
 2.857143e+00
 2.285714e+00
 2.142857e+00
 2.571429e+00
 3.714286e+00
 4.142857e+00
 4.714286e+00
 4.714286e+00
 4.857143e+00
 4.714286e+00
 4.285714e+00
 4.000000e+00
 4.285714e+00
 4.428571e+00
 4
 4.142857e+00
 4.571429e+00
 6
 7.571429e+00
 8.285714e+00
 8.000000e+00
 8.285714e+00
 8.571429e+00
 9.142857e+00
 9.857143e+00
 1.014286e+01
 1.014286e+01
 1.085714e+01
 1.185714e+01
 1.328571e+01
 1.471429e+01
 1.542857e+01
 1.542857e+01
 1.557143e+01
 1.571429e+01
 1.600000e+01
 1.642857e+01
 1.614286e+01
 1.557143e+01
 1.514286e+01
 1.471429e+01
 1.485714e+01
 1.542857e+01
 1.528571e+01
 1.442857e+01
 1.328571e+01
 1.214286e+01
 1.142857e+01
 11
 9.285714e+00
 6.857143e+00
 4.857143e+00
 3.142857e+00
 2.142857e+00
 1.285714e+00
 -8.571429e-01
 -3.428571e+00
 -5.285714e+00
 -6.857143e+00
 -8
 -8.857143e+00
 -1.071429e+01
 -1.257143e+01
 -1.342857e+01
 -1.428571e+01
 -1.457143e+01
 -1.428571e+01
 -1.485714e+01
 -15
 -1.442857e+01
 -1.371429e+01
 -1.242857e+01
 -1.057143e+01
 -1.014286e+01
 -9.857143e+00
 -9.571429e+00
 -9
 -7.714286e+00
 -6.285714e+00
 -6.000000e+00
 -5.714286e+00
 -4.857143e+00
 -4.142857e+00
 -2.571429e+00
 -1.714286e+00
 -2.142857e+00
 -2.571429e+00
 -1.857143e+00
 -1.428571e+00
 -1.428571e-01
 7.142857e-01
 8.571429e-01
 1.142857e+00
 2.000000e+00
 2.285714e+00
 3.142857e+00
 3.714286e+00
 3.428571e+00
 3.142857e+00
 3.142857e+00
 3.285714e+00
 3.428571e+00
 3.714286e+00
 2.857143e+00
 2.285714e+00
 1.857143e+00
 2.000000e+00
 2.428571e+00
 2.714286e+00
 2.285714e+00
 2.571429e+00
 2.857143e+00
 2.714286e+00
 3.000000e+00
 3.000000e+00
 2.571429e+00
 2.000000e+00
 1.428571e+00
 1.428571e-01
 0
 4.285714e-01
 -1.428571e-01
 -1
 -1.571429e+00
 -1.571429e+00
 -7.142857e-01
 4.285714e-01
 -4.285714e-01
 -1
 -4.285714e-01
 2.857143e-01
 1
 1.571429e+00
 1.428571e+00
 1.428571e+00
 1.714286e+00
 1.571429e+00
 1.571429e+00
 1.857143e+00
 1.428571e+00
 4.285714e-01
 0
 -2.857143e-01
 4.285714e-01
 7.142857e-01
 0
 -5.714286e-01
 -7.142857e-01
 -4.285714e-01
 2.857143e-01
 8.571429e-01
 5.714286e-01
 2.857143e-01
 5.714286e-01
 7.142857e-01
 8.571429e-01
 5.714286e-01
 -7.142857e-01
 -1.571429e+00
 -1.571429e+00
 -1.714286e+00
 -1
 -2.857143e-01
 1.428571e-01
 4.285714e-01
 1.285714e+00
 1.428571e+00
 1.571429e+00
 2.142857e+00
 1.285714e+00
 4.285714e-01
 0
 0
 1.428571e-01
 8.571429e-01
 4.285714e-01
 4.285714e-01
 5.714286e-01
 5.714286e-01
 8.571429e-01
 1.571429e+00
 1.571429e+00
 1.142857e+00
 1.142857e+00
 1.428571e+00
 2.571429e+00
 3.714286e+00
 3.714286e+00
 3.285714e+00
 3.571429e+00
 4.285714e+00
 5.285714e+00
 5.857143e+00
 5.142857e+00
 4.857143e+00
 6
 7.714286e+00
 1.014286e+01
 1.314286e+01
 1.614286e+01
 1.914286e+01
 2.228571e+01
 2.428571e+01
 2.485714e+01
 2.385714e+01
 2.042857e+01
 1.500000e+01
 9.142857e+00
 3.571429e+00
 -1.285714e+00
 -5.285714e+00
 -8.142857e+00
 -10
 -1.042857e+01
 -9.714286e+00
 -8.428571e+00
 -8.000000e+00
 -8.571429e+00
 -1.014286e+01
 -1.185714e+01
 -1.342857e+01
 -1.442857e+01
 -1.528571e+01
 -16
 -1.585714e+01
 -1.514286e+01
 -1.371429e+01
 -1.185714e+01
 -9.857143e+00
 -8.714286e+00
 -7.714286e+00
 -7
 -6.142857e+00
 -4.857143e+00
 -3.285714e+00
 -2.714286e+00
 -2.857143e+00
 -2.714286e+00
 -1.857143e+00
 -1
 -1.285714e+00
 -3.142857e+00
 -6
 -8.285714e+00
 -9.142857e+00
 -6.571429e+00
 1.142857e+00
 1.657143e+01
 4.242857e+01
 7.971429e+01
 1.264286e+02
 1.754286e+02
 2.150000e+02
 2.368571e+02
 2.368571e+02
 213
 1.657143e+02
 9.914286e+01
 2.028571e+01
 -5.785714e+01
 -1.204286e+02
 -1.612857e+02
 -180
 -1.795714e+02
 -1.661429e+02
 -1.445714e+02
 -1.191429e+02
 -9.657143e+01
 -7.971429e+01
 -6.885714e+01
 -6.271429e+01
 -5.828571e+01
 -5.214286e+01
 -44
 -3.571429e+01
 -2.757143e+01
 -2.071429e+01
 -1.542857e+01
 -1.185714e+01
 -9.714286e+00
 -8.000000e+00
 -6.571429e+00
 -5.428571e+00
 -5.142857e+00
 -4.857143e+00
 -4.142857e+00
 -3.000000e+00
 -1.571429e+00
 -7.142857e-01
 -4.285714e-01
 -1.428571e-01
 0
 8.571429e-01
 1.714286e+00
 2
 2.000000e+00
 1.428571e+00
 1
 1.285714e+00
 1.714286e+00
 1.857143e+00
 1.428571e+00
 1.142857e+00
 5.714286e-01
 5.714286e-01
 5.714286e-01
 1.428571e-01
 -5.714286e-01
 -2
 -2.428571e+00
 -1.571429e+00
 0
 1.142857e+00
 1.714286e+00
 2.142857e+00
 3.285714e+00
 4.285714e+00
 4.714286e+00
